Time [s];X [m];Y [m];Z [m];Speed [km/h]
0.0;-173.02865230556898;124.52143513090328;196.3237892667853;263.0
0.43537688442211053;-146.0970674588871;158.65394372212828;196.60154891775642;270.3105681628166
0.8707537688442211;-131.06625191366462;178.45381718666715;196.80662891316175;274.7488306400936
1.3061306532663317;-112.56670863959418;203.71560187448122;197.09629672393257;278.7050689490665
1.7415075376884421;-92.61754343102491;231.21075331644613;197.5221026168928;285.0467646617899
2.1768844221105526;-72.98221785872157;258.1828213324286;197.96074529716606;288.7861138865928
2.6122613065326634;-50.68062102438645;290.1280562862395;198.55569551841637;293.33224232528045
3.047638190954774;-29.822770803294137;321.4135819485842;199.06476204573795;291.9657536302602
3.4830150753768843;-6.706668903208973;354.973811664354;199.59567799873824;297.0020666797917
3.9183919597989947;9.037571554152834;376.1531989096614;199.94642142879536;297.23227713617143
4.353768844221105;31.582932044668652;403.003114352864;200.75495807169642;301.848668756355
4.7891457286432155;57.174607252062;426.58652197595194;201.08653387757184;299.46560055360453
5.224522613065327;89.17700473532268;443.40698060306994;201.42041223959941;297.9641826653276
5.659899497487437;126.81422871376685;451.77885554058105;201.63416678231124;295.85887029127946
6.095276381909548;159.95993175729828;451.78472092586156;202.00412873628886;294.31375713964513
6.530653266331658;201.72932244023153;447.3574511842223;202.58527656893293;297.07889106836166
6.9660301507537685;231.40986315355383;444.20736858516716;202.79574382279873;297.9427575617465
7.401407035175879;266.4416701584943;444.8067324108027;203.3113335228419;298.0024340381906
7.836783919597989;307.77760383897936;455.03057783846043;203.92465888417857;296.98727566353733
8.2721608040201;344.25713650501393;473.89323569767845;204.61722847526084;297.00052203242996
8.70753768844221;366.24301390785183;492.123560468576;204.7980130501279;297.03451012379725
9.14291457286432;391.993286381031;517.7033239430324;205.04377443082717;295.2556113271389
9.578291457286431;418.11319191066525;542.8533538670661;205.17838282270665;291.3719160954288
10.013668341708541;441.1709464091444;563.2197738326547;205.4008180155844;221.9964584211143
10.449045226130654;460.5119161992522;578.7435126511828;205.50576229944318;177.96084757359657
10.884422110552764;476.9719205569174;587.9470025638736;205.49611748701895;153.12679493246182
11.319798994974875;494.3116068481066;590.0693722489964;205.31434852637454;141.83447919081652
11.755175879396985;510.0260393063695;586.4639471445928;205.3925342081648;130.85712438930673
12.190552763819095;522.2580835426653;578.2563171893587;205.67134813899892;122.09497066010208
12.625929648241206;532.712377038868;563.4808085374309;205.92948332711563;120.18113970638449
13.061306532663316;536.0715554154739;552.2694342389611;205.91190718734504;127.94194155204036
13.496683417085427;538.4867607935762;536.9581391065385;206.03809001377806;134.26143886425353
13.932060301507537;539.9313501584697;520.4438113573955;206.3430689249396;146.53267123736774
14.367437185929647;543.4206209738678;504.5670420681403;206.58607022910934;138.9473164342824
14.802814070351758;550.4214126070992;490.92920602815053;206.60307247590657;124.33695711758315
15.238190954773868;562.5508103626654;478.7091535572008;206.46835006788498;98.28814652253267
15.673567839195979;569.9786287084751;474.6084574971705;206.48343298127745;98.68434082329605
16.10894472361809;581.1075387035359;473.48308724226615;206.4546972893309;85.52409813039748
16.5443216080402;590.5748248684956;478.0117590153325;206.39096367387424;72.55682531962309
16.97969849246231;598.4881973441534;485.47711180631626;206.39523373074186;103.2669557873365
17.41507537688442;607.3331643547978;496.69566900400775;206.5206173132604;115.55545984407954
17.850452261306533;615.1890231696892;511.57764128415283;206.49999550512436;127.98174567100794
18.28582914572864;620.1284068473436;523.7993878047974;206.50391993554354;151.19119536511585
18.721206030150753;625.9279783850272;542.9775406893522;206.40366529068893;171.59719533250436
19.156582914572862;630.7510318804422;564.499663942552;206.50104191745027;209.08216775802416
19.591959798994974;633.3160945297824;592.5839562068154;206.38782688656735;221.79556493633942
20.027336683417083;631.1902398399408;617.2324725327294;206.32522972959194;215.31871801709718
20.462713567839195;624.449277305483;643.8948897318785;206.22415963838898;223.95189568731658
20.898090452261307;609.9403107681153;673.2773258785115;206.3462027928727;235.72295342634257
21.333467336683416;593.0078885713823;696.7071721265069;206.40824113911313;242.8305457086146
21.768844221105528;574.4802997837279;714.6693879749378;206.39994451092286;247.34867403429308
22.204221105527637;546.8614245559985;736.8997413964681;206.39998597635275;259.3947092068788
22.63959798994975;524.4205708734456;754.2976309835605;206.39982029415359;281.283868058617
23.074974874371858;497.4471683588597;776.3863455370748;206.40366418095763;274.1885269277824
23.51035175879397;474.30322450190096;796.1147476788151;206.4162748668775;279.1214211409549
23.94572864321608;439.9833213341891;825.6046686990301;206.38626662946817;285.391452146629
24.38110552763819;416.02014752658675;846.1979962166741;206.39590672968063;290.3225605973237
24.8164824120603;388.1588849745813;870.083982584038;206.29363606573946;294.51034362160283
25.25185929648241;369.1907409651827;886.8173200800477;206.30259162165646;297.71255292348457
25.68723618090452;335.88211871002284;915.9901098726009;206.340361059272;302.34499891841915
26.122613065326632;312.8049918514536;936.2495193769886;206.28219038967458;306.0191240749137
26.55798994974874;284.7509779317537;960.7641877743447;206.1049437129126;307.72372612737104
26.993366834170853;257.2054556365817;984.6995661128831;205.8850714052061;310.9810731066994
27.428743718592962;219.5152394694809;1018.0278528211423;205.26256912512946;312.66303672412874
27.864120603015074;200.41873379332839;1035.1580454886926;204.98819976478393;307.474560479206
28.299497487437186;172.16900730906076;1059.9897310221038;204.5376804357806;312.1804676653067
28.734874371859295;131.9478490497035;1086.9677400966812;203.94675922626823;293.32300643043527
29.170251256281407;113.28153859222951;1092.5155191242138;203.6702724618016;246.30393565182396
29.605628140703516;87.22789530712174;1095.0043513282924;203.4033316617806;211.48447111121416
30.041005025125628;63.58808133095889;1091.7277428694786;203.19935051982432;194.74033228737312
30.476381909547737;43.981774465717386;1081.3649591460874;203.200263173786;180.49948830242084
30.91175879396985;31.038598239292753;1065.3456465945433;203.24291761909504;167.72666910825623
31.347135678391957;22.132806021478164;1045.5214254808986;203.29786498120595;177.5728118902245
31.78251256281407;18.7404742436329;1017.029731657287;203.40690534435132;186.07120554292484
32.21788944723618;18.775411422024227;1002.9900880139757;203.40832513154038;202.17193949311206
32.65326633165829;11.480765378475244;972.3571763121295;203.75968228545312;164.4183747107929
33.0886432160804;3.6601384122030813;962.1848560858401;203.89000148985855;154.3426025080114
33.52402010050251;-10.790263999325658;950.4345243870843;204.02285022176568;133.1698692393342
33.95939698492462;-26.15319434475072;944.4510263808703;204.11974742210808;126.97056087875553
34.39477386934673;-38.610400026171874;944.5728418996522;203.999526299656;118.27788805290031
34.83015075376884;-52.348450316025904;950.7357409688562;203.8587138213439;112.88400491286731
35.26552763819095;-61.81460001888455;958.9965414916044;203.6934727689239;119.33397468302446
35.700904522613065;-71.29844563588429;973.8640471880884;203.4390478373228;131.15131481311857
36.13628140703518;-75.727441424672;987.4875463107286;203.30437178439834;141.12014676496344
36.57165829145728;-77.52220236467156;1013.3446556426666;203.15222939267625;166.2161517541035
37.007035175879395;-74.67549485153005;1032.6473463614573;202.9719370204906;175.07249224000532
37.44241206030151;-71.1994789337647;1046.8100038044245;202.9240451650274;191.15417891701352
37.87778894472362;-62.59142075255015;1069.310058918223;202.4813479757057;204.86544320474565
38.313165829145724;-51.68674019073575;1092.3624138483826;202.24215766669263;232.9773453367789
38.748542713567836;-34.516812563050784;1123.5125238905407;202.08432455203317;235.0859921003167
39.18391959798995;-24.17922238924207;1139.7781044633205;202.099951238444;244.090772514088
39.61929648241206;-5.942094896269017;1164.0612389691903;202.0950120002984;253.32942365726296
40.054673366834166;23.900329917330165;1195.7486524688763;202.28601827223065;261.1106487718083
40.49005025125628;40.377671344989146;1210.7346835855385;202.4225688549903;266.8751738336854
40.92542713567839;72.2218007607735;1233.2784610034294;202.40000951764756;268.4193592214405
41.3608040201005;96.22730378996631;1245.5394167425834;202.43890273314216;276.40632979077446
41.796180904522615;126.90921808748563;1258.7558799771036;202.50265794792364;276.7864954597434
42.23155778894472;157.0797330864749;1267.4762565111864;202.49431704836076;282.9471268081064
42.66693467336683;196.77399505793417;1275.4777315579697;202.74930091134968;287.77022798812663
43.102311557788944;226.7413574588274;1279.584878276357;202.90629793784515;290.38426605044833
43.537688442211056;269.63270637000187;1284.2514629019417;203.3233143457304;295.51276123504056
43.97306532663316;295.1448998573881;1286.8309492290928;203.58679571699585;297.81005857006585
44.408442211055274;333.7325673724908;1290.8320134904152;203.87653492845396;298.9327114198459
44.843819095477386;369.6218769746385;1294.8291486007292;203.7840593079328;301.99895610047304
45.2791959798995;406.6271783953823;1299.0297091441687;204.30575355403565;306.00012386827103
45.7145728643216;446.5818253721181;1304.26298096466;204.58685830748638;307.07186196392365
46.149949748743715;507.3665491874468;1311.1553387881008;204.83023486628792;306.9573535602648
46.58532663316583;526.4359789466076;1311.4567525631471;204.90218729043397;308.0288337076269
47.02070351758794;562.9698094106245;1305.211353689767;205.0868721812655;304.3026912430986
47.456080402010045;605.5075636293717;1283.69507371186;205.40005706347876;300.9980960808682
47.89145728643216;624.1165715126145;1267.5988260420831;205.49872949007795;297.0939745291328
48.32683417085427;648.3393808942732;1231.581580310121;205.6966026887314;295.08089368008734
48.76221105527638;658.9396817264919;1205.883850673711;205.86785381295135;294.1981059491626
49.197587939698494;669.3702147167039;1171.7127106337641;206.1379657298449;292.9189590509225
49.6329648241206;677.771725165413;1137.1499473682502;206.4370991820897;296.17184119745315
50.06834170854271;685.0222557175391;1100.6559897615566;206.7154677797054;297.5658144769769
50.50371859296482;690.7578793276151;1061.3869043828163;206.99767788600275;300.0605859898827
50.939095477386935;694.2579881075008;1029.90535193191;207.2279957940566;301.0058234996262
51.37447236180904;696.9461121215534;991.954734530884;207.4442478569137;302.3460358264143
51.80984924623115;698.2042787854787;953.9283801654633;207.4822394406969;303.9769325506618
52.245226130653265;699.6814902364063;905.3424525865587;207.2992889038356;305.49948593312286
52.68060301507538;703.7074810348571;870.3899798995725;207.08796575501177;305.85009602244986
53.11597989949748;708.6754736802634;843.0148039734805;206.92716080807696;307.0588377889858
53.551356783919594;717.2687691651181;810.4218732279469;206.69641483266201;307.9037485120165
53.98673366834171;729.4373765877863;775.0544358475419;206.3106084055106;306.3246842947068
54.42211055276382;746.3485864981807;731.193429337965;205.81786624476797;307.0176978562228
54.857487437185924;754.0163891198463;702.8193346759878;205.794932322345;303.84372212644485
55.292864321608036;750.7723782739492;661.4597417037753;205.7940380641395;299.1477698390634
55.72824120603015;744.7737695105842;634.6381754115006;206.04010622763118;296.70913203915796
56.16361809045226;736.2847923165431;599.4054174290972;206.21141646158722;295.874583062771
56.59899497487437;733.1457557930569;581.8492593219434;206.31030096706263;292.7218200030886
57.03437185929648;732.1363345672719;546.3139901022947;206.2264078163023;282.4765646478191
57.46974874371859;740.5607904242462;519.090594988825;206.00077836709323;266.03436705457773
57.9051256281407;755.9240932840667;491.3165467173429;205.53170659074797;255.6187195633573
58.340502512562814;772.6685873874675;460.1229369460921;205.11977647872052;250.64317869947672
58.77587939698492;779.04125697652;434.51384050237925;204.8150634967956;203.9524387457421
59.21125628140703;775.3203692540112;404.6733243184576;204.29022248913165;213.68617739783872
59.646633165829144;766.6593073532573;383.98378222873544;204.05613926189508;212.66680071117187
60.082010050251256;752.1303645710992;362.60326315877876;203.77639531990326;219.65284733162574
60.51738693467336;722.3844191731811;340.23293013861564;203.26908910629842;230.8075748028448
60.95276381909547;697.323558847677;326.9559110800074;202.9884754494187;239.71212475838715
61.388140703517585;674.683859683903;309.6613493760668;202.79540535613967;246.09247344513358
61.8235175879397;659.7908516679929;294.17491139973873;202.74468431186756;253.37210514874246
62.2588944723618;639.5141797278795;269.8677910927287;202.80868504208058;263.45477677531454
62.694271356783915;622.2425345547798;242.82099500644702;202.59859991822955;271.0212126594648
63.12964824120603;602.2804577556522;205.43946450613998;202.44994872410854;277.0251291831502
63.56502512562814;589.5764885570748;179.00939756260198;202.365598782516;282.0004313913558
64.00040201005025;575.337921262215;149.57333644759703;202.24684261652737;289.37060066044955
64.43577889447236;561.1729974894246;120.01909755199794;202.05557788640283;295.67282247370133
64.87115577889448;544.754752414113;85.49986716461508;201.8789340161309;299.24671666316044
65.30653266331657;527.1685802120793;49.031487056908965;201.64428097228017;304.31854265121547
65.74190954773869;513.2785490297313;20.186542721456174;201.32826143784195;308.2703405525805
66.1772864321608;497.1126651150987;-13.018556242148792;201.09762156024337;307.8987081820816
66.61266331658291;479.1135417383885;-50.46821862166485;200.87164538419074;314.0915724943566
67.04804020100502;460.9033604200457;-88.21002882529744;200.711492233028;314.82913770238656
67.48341708542713;448.35155304194245;-114.08490529531441;200.4657309238912;317.1696438139947
67.91879396984925;431.75268261620863;-148.0111488170326;200.07790534829482;319.9587640157331
68.35417085427136;414.59747486590123;-182.4235520849931;199.6622169758288;321.7692723616955
68.78954773869346;391.1712374975585;-228.58566773349324;199.35853584478494;324.0968441775891
69.22492462311557;376.40034454276315;-256.8151941347909;199.51555973991287;324.9591499909148
69.66030150753768;358.5036990145902;-290.14697674102973;199.8922036741828;324.9664784108378
70.0956783919598;338.8511056224521;-324.2174473484431;200.54205991703245;325.73036435087175
70.5310552763819;317.62660936390506;-356.17599247122683;201.30945265355655;319.40604668924453
70.96643216080402;293.49683561589916;-383.1539745713159;202.02253014620797;279.51695721699906
71.40180904522613;263.37597598236437;-402.2278709775788;202.46756257830484;270.1059825687418
71.83718592964824;242.03808123403337;-410.6277119946092;202.89361776670788;242.7019841310617
72.27256281407035;209.91784360939013;-410.8696993975044;203.26746397338601;228.5575546197379
72.70793969849245;186.91671174933813;-403.8470088812658;203.3000152359368;228.99645522145576
73.14331658291457;159.41169475253432;-387.07069807534776;203.2629054042041;234.25010412721113
73.57869346733668;141.2367923097555;-367.0525448031962;202.87177174215586;238.84881935783432
74.01407035175879;124.12287829139598;-341.70864053603117;202.4672450170468;246.62602908380833
74.4494472361809;111.44095605132756;-317.6172367165651;201.74002047865284;248.99447930236192
74.88482412060301;96.57384377156197;-291.3357864533037;200.6126277713221;257.33539821783864
75.32020100502513;79.01542728041895;-265.94445253048855;199.3655442715175;265.51496115451135
75.75557788944724;56.38218983616596;-235.38255351623494;198.44041884340635;274.89357047617233
76.19095477386934;37.349342998547996;-209.9461495390791;198.51961843134666;273.3047306618692
76.62633165829145;17.223327192716138;-184.1854910823497;198.6000780961155;276.9216061099535
77.06170854271356;-8.243919261549653;-154.48329049929916;198.56201142287054;280.87630628733933
77.49708542713567;-27.09186671032329;-133.54336183076308;198.27219648525576;254.4730906615362
77.93246231155779;-45.807604386954615;-112.93720446960889;197.7947195473255;186.83109742021534
78.3678391959799;-57.93125443770262;-102.07982151892332;197.59464795413922;148.1253668761282
78.80321608040201;-75.50986854038545;-93.19855294442222;197.57003518403522;124.95977275522435
79.23859296482412;-86.49850850964225;-91.18713724766324;197.5789490313474;116.22763136490006
79.67396984924623;-102.39023545940555;-93.264440937578;197.78783237933328;110.92298868860345
80.10934673366833;-110.57853515858501;-97.20152415570452;197.83289099500922;109.61225607934675
80.54472361809044;-122.56386002171301;-106.17662816861187;198.06174498751784;126.84490721929748
80.98010050251256;-138.17826894965359;-115.23966244630748;198.1014343673633;128.95069084454767
81.41547738693467;-150.56398527812993;-117.32753059639658;198.1192247882543;127.23776685743698
81.85085427135678;-167.09521367392884;-113.25358697204504;197.86496571813;135.05339682949963
82.28623115577889;-180.65738567423966;-106.80237500800267;197.79641408943905;147.60866353518927
82.721608040201;-194.9045401962631;-94.55576995224256;197.63317632253955;143.3944343825495
83.15698492462312;-208.2934391071249;-77.83901383159441;197.49396395006343;179.29334523679324
83.59236180904523;-219.8037215070775;-58.15199094152493;197.39373275764902;196.77405660459482
84.02773869346733;-228.66362789256434;-31.082050785910766;197.05176224678382;207.62638623621257
84.46311557788944;-231.33845183774716;-4.71582355864716;196.77721712799098;217.19163811369063
84.89849246231155;-229.9541688013201;19.096750958798197;196.5641003783026;231.00010323045774
85.33386934673366;-223.4318670505441;45.08000515849288;196.29846367286584;239.0588751273882
85.76924623115578;-208.19454492163507;75.19347999827475;196.1913339487367;244.35899009314667
86.20462311557789;-191.20330238785036;99.72094715083152;196.26487913367697;253.07333975432124
86.64;-170.01561803279327;128.3354201541909;196.37826143574355;258.0
