Time [s];X [m];Y [m];Z [m];Speed [km/h]
0.0;-172.8;125.1;196.3;258.0
0.4367688442211055;-156.26819447854996;145.43854171106278;196.13659661647534;267.5331350873852
0.873537688442211;-132.4616089177906;177.04124380163427;196.85526768782626;264.9380358978993
1.3103065326633165;-117.31844039086077;197.23775413781135;197.0140173873114;276.1496243022258
1.747075376884422;-97.03436509087744;225.1958871380215;197.47361446006894;279.76395131014647
2.1838442211055273;-76.87616095330372;252.89395900895764;197.87321554024751;282.1007304854443
2.620613065326633;-56.67972966461485;281.261270907856;198.3952284662604;288.79093770176456
3.057381909547739;-37.07111944488315;310.4576647568929;198.88029759315003;291.26759801931445
3.494150753768844;-17.040461575434538;339.86614197316027;199.36292242400359;295.5691892511828
3.9309195979899494;3.6397265314896243;369.1030988619525;199.82101545302373;296.02613483079705
4.367688442211055;26.32515614512983;397.29860835558793;200.64436271527333;296.16681844002596
4.804457286432161;51.84083618590084;421.7414592903144;200.739650254973;308.6778463681625
5.241226130653266;82.49417390351384;441.06465007470496;201.30855400353286;294.9320754706232
5.677994974874371;116.9493602257109;450.2905708066716;201.6019203087732;293.9982754560736
6.114763819095478;161.8295955082013;451.78334125952284;201.99922070522112;294.00649459290617
6.551532663316583;189.95938345727106;448.747600803832;202.46123894226614;295.342268521868
6.988301507537688;228.09823992714365;443.9394288596035;202.70163164347537;297.5958008355612
7.4250703517587935;272.439058641835;446.24368361753244;203.32783147575176;299.696133328261
7.861839195979899;296.6408546902225;450.8802024169323;203.7005944399072;298.99985131225685
8.298608040201005;331.17519073765334;465.78230365885344;204.32744872295504;298.99963788776347
8.73537688442211;360.1934146385516;486.7127951833245;204.7343433271883;298.9587161047013
9.172145728643216;389.9440676865511;515.4773047802677;205.0065335551918;294.07877858491497
9.608914572864322;412.77236337295403;537.6487900222711;204.79832016502752;310.7235185616494
10.045683417085426;443.27026299965434;565.00781841899;205.41170412542843;249.3106349626552
10.482452261306532;455.8867271130798;575.2128175407515;205.5029894256293;194.68305199463865
10.919221105527638;472.3616140278578;586.4921500073784;205.39798045101966;162.7158075783652
11.355989949748743;495.20650786975665;590.4155763085654;205.22248814808262;137.2441836138838
11.792758793969849;506.0785244747558;587.9420407815385;205.39467595149222;133.50781553318117
12.229527638190955;519.0280798486027;580.8816249900017;205.6160787837188;117.56446075795859
12.66629648241206;530.5402615598264;567.381642987418;205.89374349915173;114.04752577088755
13.103065326633166;534.287525698235;558.1820389542947;205.85282580855335;113.41064791068807
13.53983417085427;537.4675174460926;544.2427926184993;206.00043964942265;118.82917210569887
13.976603015075376;539.7351355604702;523.0288042014619;206.38490377341097;139.0807649660102
14.413371859296483;540.9664865058453;514.029086376511;206.3924605563126;145.84639432845387
14.850140703517587;546.2835605549227;497.9730712102625;206.60834719308616;133.04032263534612
15.286909547738693;554.2354819541197;486.29267759552016;206.5055485922246;111.33117109295733
15.723678391959798;565.5837224468489;477.1057564361932;206.46593686989877;98.87783409578984
16.160447236180904;573.8183689432304;473.47234094999294;206.46242141121215;93.38099925564953
16.59721608040201;584.3189402074103;474.30308061163504;206.406232043736;88.05477930778545
17.033984924623116;593.6425185060917;480.748008336257;206.39954228071596;91.93995659937512
17.47075376884422;602.0830034532139;489.70727068744077;206.29615944632172;101.73193076993505
17.907522613065325;609.4320017939227;500.4609843247147;206.56803210102296;121.79715678476384
18.34429145728643;617.2110379569774;516.6816942326616;206.50191976292268;131.68025623787574
18.781060301507537;623.2524557427537;533.0295593207893;206.29781149095027;155.74982499561017
19.217829145728643;627.8385297879857;550.3447563322286;206.62423857178533;181.86381063670092
19.65459798994975;632.2246291103589;575.6642157140973;206.43402539023091;194.33134944127684
20.091366834170852;632.8722502544466;602.0833590264994;205.98896768270922;219.01652063898018
20.52813567839196;630.197332159053;622.7309058750886;206.30069740119765;221.79290524533596
20.964904522613065;619.2978617453001;655.5005479433403;206.29733039265093;231.79715676834695
21.40167336683417;609.4385097776699;674.0941264529828;206.30141893375742;237.96117222289917
21.838442211055277;591.5257831926019;698.109002869435;206.4000040232996;247.52646969378364
22.27521105527638;567.0790337229432;721.1582288338649;206.45327219898078;254.89012734499954
22.711979899497486;542.4425193896968;740.4125970692452;206.3451131561656;264.00286141227195
23.148748743718592;518.2692409909693;759.126204382611;206.4000131221494;270.0179182139704
23.585517587939698;491.70080569860005;780.8497700650187;206.6684103926218;276.7553309594057
24.022286432160804;465.4069862422549;803.5916992896949;206.1685100171617;281.088902727248
24.45905527638191;438.72519593580637;826.4357690012366;205.95340324818957;283.9584643848892
24.895824120603013;407.2309007538999;853.323043730174;206.13115266293232;297.1463698097521
25.33259296482412;385.72392900295546;872.1855601860701;206.35381117643598;298.6893769529831
25.769361809045225;357.90192897481614;896.6725653051296;206.25671975535147;301.41205762969776
26.20613065326633;320.6823621250133;929.3003202890837;206.4020582642228;305.4537740323373
26.642899497487438;302.7583664353295;945.0426476105876;206.21322019759467;308.78110486832327
27.07966834170854;273.7601263715;970.2952459125754;205.98899335821736;310.10349489472503
27.516437185929647;244.9164720881566;995.4436520171978;205.72424702825316;312.8765766630629
27.953206030150753;213.5115652362276;1022.6426292660896;204.89094651094914;319.6551972419146
28.38997487437186;186.38535651210094;1047.6568036740646;204.70681005048158;313.08408671935865
28.826743718592965;157.18460555203026;1071.256952913001;204.3008238065616;303.2637042303901
29.263512562814068;121.87529242951078;1089.689607569836;203.87080163141115;295.1405820679177
29.700281407035174;99.85601988032863;1094.1784985029865;203.50687768342894;223.7501932345406
30.13705025125628;73.21435427953183;1094.3643556277389;203.29825052659913;202.01907768288694
30.573819095477386;54.14717206937082;1087.6995745553836;203.1992774499132;180.51526514458354
31.010587939698492;37.611255183874704;1075.0712306717005;203.201248966995;175.35917820066155
31.447356783919595;24.04987282277593;1051.5828802845845;203.3024625185411;175.83276029142698
31.8841256281407;20.18884371868308;1034.3577086779912;203.21373717388812;186.12538692805478
32.32089447236181;18.535930696816195;1011.0119091943707;203.25197492793023;195.43532653718165
32.757663316582914;15.960392801453517;987.159674136754;203.5839198294473;189.67195651020864
33.19443216080402;8.690928275790823;969.1564047166819;203.3035321803451;153.52810910672397
33.631201005025126;-0.7758408859682283;957.343835266055;203.90698606368016;145.76120377300182
34.06796984924623;-17.794865633496073;946.9646212184612;203.99983854357026;137.77940402207184
34.50473869346734;-29.27459838663245;944.1096163694651;204.09996800170515;132.19225056799598
34.94150753768844;-43.981677537513086;945.8848247535709;203.9665388998099;111.67799253594511
35.378276381909544;-56.19738750710143;953.4226606592676;203.7278099458363;117.6922458792129
35.81504522613065;-66.48281664431114;965.3981434386563;203.48075862579046;122.42497429997299
36.251814070351756;-74.43455393546387;982.3875220914701;203.29332987790198;132.84124640373557
36.68858291457286;-77.48123045692486;1001.4529475444211;203.23512091384086;136.911601763892
37.12535175879397;-77.22022125624122;1015.1471064767684;203.1010107138634;159.66309109340912
37.562120603015074;-74.03746297152313;1035.7665540616454;202.92969674495757;183.43547910398797
37.99888944723618;-64.60135043199956;1063.6351833921103;202.47086249649078;199.74428492755405
38.43565829145729;-56.874392730495735;1082.4476545679556;202.4150481575791;227.80030529312427
38.87242713567839;-44.14925781871838;1106.6165858242287;202.18977464208533;228.13869341752073
39.3091959798995;-27.94755291337579;1133.6694884420476;202.09536914012324;240.3104350129745
39.7459648241206;-12.180957877206245;1156.4776989802886;202.15793058092171;246.11903357120357
40.182733668341704;7.038483883631983;1178.6762623820223;202.04035666057575;256.4018433083784
40.61950251256281;29.75372269113932;1201.0337609350481;202.40081502485063;261.6915903969431
41.05627135678392;62.35839092870108;1227.026544244771;202.41130395402226;268.13459313093637
41.49304020100502;82.5700600534465;1239.5461490727557;202.42632723911012;272.3295241386463
41.92980904522613;113.85943948888132;1253.5424007923377;202.4972382375422;275.82965135840465
42.366577889447235;149.65481581178273;1266.1170562410753;201.9286412507602;291.5960547505267
42.80334673366834;188.3881934343479;1274.31129947307;202.7067602373607;287.37937081799504
43.24011557788945;213.75986839235034;1277.9887995681636;202.84879123989506;288.8176352677607
43.676884422110554;250.9498482028172;1282.2942085791856;203.15741832970406;293.6675125327782
44.11365326633166;286.33915587986246;1285.9090643204206;203.4355577644237;295.61521932917555
44.55042211055276;322.40151018000756;1289.5234395968578;203.7024569993509;298.00700108258025
44.987190954773865;358.4695235285639;1293.6242703747084;203.99985323820158;300.90014078568925
45.42395979899497;393.9072566454802;1297.7081169667633;204.31747141026926;303.3694468287163
45.86072864321608;426.28398783967396;1301.8782295271349;204.43062592907245;304.89214939201065
46.297497487437184;471.5287310176358;1307.4752659546662;204.6833519249589;305.6834409281519
46.73426633165829;505.28400226137705;1310.8939457512454;204.80010508610667;306.9888570221163
47.171035175879396;541.0798708376386;1310.1155658789376;204.8763385756103;305.5207208409886
47.6078040201005;579.0959773181589;1299.4112439156397;205.17604830470736;295.9507007560858
48.04457286432161;607.1505727254361;1282.4775549004914;205.40480868618027;293.91403332572645
48.481341708542715;632.4220756390594;1258.1046334813539;205.58433951344898;292.3138830397465
48.91811055276382;650.2394875336057;1227.7767970334528;205.89903629032335;290.1079714095298
49.35487939698492;664.0419672459518;1192.1003634896954;206.2324421224481;290.9681142342872
49.791648241206026;674.8719850118969;1150.174726763129;206.32461522427454;290.40884090022996
50.22841708542713;681.0551981414521;1121.962839543973;206.57835632161726;290.4029802617235
50.66518592964824;686.6218353718724;1091.9804118119207;206.76347481381228;293.0906584495537
51.101954773869345;693.1521302584358;1041.1863778695335;207.11828345282314;298.98749025955823
51.53872361809045;695.2454442394622;1017.8127167023786;207.28090049798837;299.46558905811787
51.97549246231156;697.4936924319692;983.093756759315;207.5822143404983;300.99104107688555
52.41226130653266;698.3002654295863;946.4411511845669;207.52993667940487;301.702256704373
52.84903015075377;699.9414574439592;905.9586530459655;207.3275139779251;303.9454155230459
53.285798994974876;704.9605018625712;861.322940019653;206.9885500453388;306.1147918195457
53.722567839195975;710.3368578438472;835.8912747759541;206.9009540619953;306.8891840727719
54.15933668341708;720.1775687251787;801.0305618068858;206.5248124708982;305.89495973633717
54.59610552763819;732.929123521063;766.0518852142707;205.99177603063816;306.3611716644597
55.03287437185929;746.3311261736862;732.3383665489162;206.07432358571762;305.992103517093
55.4696432160804;754.8446600008018;691.4284367029329;205.7610413642809;304.86575824551795
55.906412060301506;750.7673653815374;660.3060953570326;205.83850481104253;297.26596678143443
56.34318090452261;740.5166879837526;617.9667978030963;206.0931365924212;291.09503928509076
56.77994974874372;733.5260784928686;581.815095261651;206.22284802842594;291.61737382539695
57.216718592964824;731.778953245012;556.819389800781;206.2037788651325;278.9346499074205
57.65348743718593;737.7286684128402;525.2154201787648;205.72865824553296;252.12383565562635
58.09025628140704;752.3813193206006;497.0647060382903;205.70994969304073;254.94059681996873
58.527025125628136;767.1493565540259;471.44905532452174;205.06407193612137;237.4739071190763
58.96379396984924;777.0098360325125;446.16826639287586;204.9858307625957;225.2907119120512
59.40056281407035;778.2049020643778;419.40805924238026;204.5157355181653;210.6124144969882
59.837331658291454;771.8642400698764;395.2199418468392;204.0838260263846;212.5434447364332
60.27410050251256;756.7807602718498;368.79224518136175;203.70542329538094;220.23167588695705
60.710869346733666;738.4176305486417;349.9983009298047;203.3846119060509;228.81080033172083
61.14763819095477;708.0897813524758;332.7463163372202;203.0999505564982;236.98765686216288
61.58440703517588;691.4678128733334;323.39810719152996;203.0033477025339;246.50473297951052
62.021175879396985;659.2189822520423;294.25731102589634;202.66821479435418;250.90161367363626
62.45794472361809;645.5080112180422;277.77455232871637;202.59367216368352;260.93164190259586
62.89471356783919;627.0949455454052;251.0231660468;202.606026809626;266.7075135798452
63.331482412060296;611.9254294480725;224.0457998244532;202.49841330534286;273.9172101371239
63.7682512562814;596.9012532103725;194.01977729231547;202.40254816659368;277.0338373540435
64.20502010050251;581.5391724741503;162.48347355185356;202.27287797630362;284.8954744640861
64.64178894472361;563.3129845751381;124.49705987653735;202.1001327404894;292.05217277321907
65.07855778894472;551.0248045744498;98.62481534428868;202.01843853944078;296.5049522888123
65.51532663316583;535.4242927498456;65.95060718024479;201.70013712608602;301.99853452468824
65.95209547738693;519.2475957881796;32.681922994219995;201.38842410562924;306.1140872619782
66.38886432160804;502.93618792216535;-0.6859723751456747;201.18913974001566;309.08282419934903
66.82563316582915;486.68774969159205;-34.71060100278999;200.90038358266676;311.98495711180317
67.26240201005025;470.1383360674445;-69.2588683009114;200.88080355239399;314.0217212436495
67.69917085427136;452.81740648886347;-105.14240698462038;200.7216057071168;314.37210619542634
68.13593969849246;437.04518392574226;-137.20045082898528;200.15117640571208;319.033774426612
68.57270854271357;419.3779630543751;-172.74244115297307;199.72211100244513;319.95615390300645
69.00947738693468;397.5449298123567;-215.36321853297804;199.41911994156987;323.0960708932121
69.44624623115578;383.8679056272581;-242.45060377666186;199.39101606708985;322.9778093614511
69.88301507537687;363.3715899405248;-281.12077747282984;199.77309977160186;323.97933006925933
70.31978391959798;345.95516719986415;-312.2627910088292;200.30723026750658;324.9989049841115
70.75655276381909;324.19570635430586;-347.06642356242827;201.01818669678795;324.17138461258287
71.1933216080402;299.4605067549254;-377.0666859981545;201.8647755237179;286.2047971133232
71.6300904522613;275.80507820560535;-396.2319391482167;202.2938588212993;267.3087944087851
72.0668592964824;249.82263528979166;-407.85677396905663;202.72497720337688;245.73705046587682
72.50362814070351;220.90077577053663;-411.65120765633804;203.18427149598494;238.02638466242178
72.94039698492462;188.26486931420845;-404.2081809639786;203.66681809620871;244.7625509045012
73.37716582914572;162.51487454144166;-388.9552548602324;203.1968030060772;230.67043102002242
73.81393467336683;147.99295005155;-375.74222139599266;203.2312715983125;236.78615163955524
74.25070351758794;123.58280738112606;-341.30604387031025;202.37594085229037;243.2121379519243
74.68747236180904;114.2921657613206;-322.5209571233355;201.85189449002272;249.91183388700912
75.12424120603015;96.87228228947505;-292.12818533434285;200.5972825411136;257.98154639495056
75.56101005025126;81.11615781642477;-268.74709856597957;199.56569297973465;263.44262415257475
75.99777889447236;63.906089341627535;-245.67192623875792;198.68472030595206;270.3012636008292
76.43454773869347;44.64324125738954;-219.5652213419421;198.37371929767457;278.7399895979984
76.87131658291457;24.149462656961305;-192.75732969100298;198.6305624341711;275.9065293374464
77.30808542713568;3.116503935587552;-167.56915872547233;198.69008829119696;278.9530712092698
77.74485427135679;-28.508404380340238;-131.79934301561843;198.1959689676322;274.40056008711133
78.18162311557789;-38.84411932280563;-120.13772002586379;197.9358294695878;207.69284134440755
78.618391959799;-54.6729021960098;-104.28288822922332;197.6030513590503;161.08997990516013
79.0551608040201;-71.47264885328329;-94.51489270689595;197.50010792611585;139.14837388139864
79.4919296482412;-81.77222255417287;-91.59829524353349;197.6182769677829;118.06684897689058
79.9286984924623;-95.62922873333866;-91.48012104632832;197.6621195831798;106.72329258231962
80.36546733668341;-107.68154507637527;-95.59015135659236;197.80045357333182;105.85195548715161
80.80223618090452;-118.70487444001448;-103.05494890096405;197.92752963939012;118.65553833613544
81.23900502512562;-133.1058498431603;-113.30581992673642;198.03071675211086;129.08888148392327
81.67577386934673;-146.22026154255474;-117.00069221546838;197.9910326308099;124.88206668491969
82.11254271356783;-164.16606294802716;-114.712443102987;197.88024496972696;131.21911924985233
82.54931155778894;-176.02024929064362;-109.39078858800033;197.7665543058635;138.45205790884106
82.98608040201005;-190.60690831316865;-98.88750254069608;197.60094749403558;156.89988353778037
83.42284924623115;-204.13596803790043;-83.09397916122609;197.49439109640758;174.60714195224787
83.85961809045226;-220.25876881052088;-56.66937793661582;197.30207788724857;190.03664833272555
84.29638693467336;-227.08847084599446;-38.10730664794152;197.2088028773939;205.3820882052986
84.73315577889447;-231.58101897030178;-5.603588973620629;196.7145866931225;216.65533994458133
85.16992462311558;-230.52834839803;14.53335082613584;196.56272437174957;227.99669384317627
85.60669346733668;-224.43347746577936;42.07050629664152;196.29628608959575;235.18189108955707
86.04346231155779;-207.7659656732422;76.0773579796276;196.19693581109738;244.60974352947167
86.4802311557789;-194.6036870961496;95.05205007703994;196.219143229742;250.00066688862123
86.917;-176.3;119.9;196.3;259.0
