Time [s];X [m];Y [m];Z [m];Speed [km/h]
0.0;-169.69185133273737;128.8221077025492;196.38765616153728;263.0
0.43211055276381904;-153.9326274204896;148.83464218134617;196.49838354390147;269.8976726853082
0.8642211055276381;-130.79959572605685;178.83371050000636;196.8456965509872;274.07980313420404
1.2963316582914572;-107.06525377471391;211.30307221171483;197.2630737361537;279.144207394897
1.7284422110552762;-95.19117825390921;227.6488734650036;197.4925287152766;284.00004271587136
2.160552763819095;-70.21235095896753;262.02524498924174;198.0585497018065;285.36292085492096
2.5926633165829145;-48.262738152510806;293.8103005744695;198.6098918243543;290.93726568104273
3.0247738693467334;-35.09077615762608;313.5077710563647;198.88329103103698;295.0940636250251
3.4568844221105524;-15.048651408362625;343.3243960944012;199.45230752790278;296.44382734853275
3.8889949748743713;10.113940983422497;377.60592997207146;200.07699920419648;299.7114662293808
4.32110552763819;28.39512813107148;399.51242369281954;200.64488659206685;306.4060423065883
4.75321608040201;59.72063425400659;428.5908882784375;201.12120022685943;300.00680735847067
5.185326633165829;83.61763912079326;441.17979670630154;201.33445011989244;298.7302610712162
5.6174371859296475;118.93704813825461;450.55351371098106;201.5666179482111;296.2358974910305
6.049547738693467;155.00720711389758;451.9114486645611;202.0223674498342;295.7689595082567
6.481658291457285;197.8355548644359;447.7941602580172;202.51868490330634;297.5458588546125
6.913768844221105;225.57147486420138;444.5300947130132;202.70996665259804;299.53912285356637
7.345879396984924;269.65398674218903;445.10407954224695;203.28402594293564;300.09269958278384
7.777989949748743;299.5891682475265;451.81123330228746;203.7914747687149;294.2547596186111
8.210100502512562;332.86431241366785;466.9408561953885;204.3298262632553;298.0192523386193
8.64221105527638;363.69605901845057;489.5572694095956;204.87887586947792;299.0933272664784
9.0743216080402;387.74067356542656;513.2648580380418;204.9987844357033;298.020725849335
9.50643216080402;415.3717084768608;540.237417899436;205.16025387825852;298.99846549867806
9.938542713567838;437.7598691526958;560.3356767607635;205.40048925270125;227.28762479277322
10.370653266331658;457.8039959193686;576.7883957282968;205.51820583951866;187.58067072625906
10.802763819095476;475.2975872505796;587.4324408535713;205.39594477302253;145.74404588509722
11.234874371859295;492.75424191735794;590.2332885706356;205.37383445956027;141.05063106499784
11.666984924623113;508.36252088881025;587.0181715217824;205.36048857338133;1.6808199067053533
12.099095477386934;520.8133749232462;579.3671014398574;205.67008834809212;113.04476421058598
12.531206030150752;529.6754015213983;569.0208962641237;205.8301881014545;115.99282317210057
12.96331658291457;536.0121382209761;552.5431411284756;205.90879643513188;119.65409214185888
13.395427135678391;537.9144554052606;540.8395133125222;206.04335136847504;113.41441143695857
13.82753768844221;540.0340787323162;520.9586385687164;206.39183995344314;139.663366606912
14.259648241206028;542.0017329082416;509.44505791867977;206.50174774860915;145.76398113009333
14.691758793969848;549.0548725204744;492.92645302412717;206.59880988670108;124.75567254290345
15.123869346733667;558.4373489295639;481.9983148902618;206.46266567172523;109.10338064334928
15.555979899497485;566.6993720197513;476.20029060983256;206.3999955752459;100.00063613834494
15.988090452261305;579.1347971316243;472.68445204443833;206.45519918762312;92.7278505289445
16.420201005025124;587.2113813852999;475.81024267438806;206.36865118841482;86.2588771488421
16.852311557788944;596.2531299589427;483.29344074916463;206.410404147355;91.10514087239385
17.28442211055276;604.9177619152116;493.4182066289269;206.45925269112172;102.03106072373977
17.71653266331658;610.8949775704947;503.1185455896835;206.4996687965973;120.18524931861081
18.1486432160804;618.2829250851171;518.5784960483163;206.50001704864204;143.2034735705826
18.580753768844218;623.8435241974399;535.3222912055761;206.50121980775057;166.35240500392618
19.01286432160804;628.976715517777;555.6630219942093;206.4129406614969;187.10826674095557
19.44497487437186;632.9351152483965;581.4284680991802;206.40667580248754;197.93449126817774
19.877085427135675;632.6185413648354;606.1623867172991;206.4076510247316;216.36486878683218
20.309195979899496;627.295492842915;635.5689647310303;206.2221999961482;218.33535780181828
20.741306532663316;618.9292990559356;657.072636570292;206.31072975355647;208.1582413238779
21.173417085427133;605.6690448676281;680.0721845642132;206.3310191854342;243.09122920242035
21.605527638190953;579.2701664150795;710.5405784009625;206.39782377797314;249.48813628116767
22.03763819095477;556.042966492426;729.8691169369623;206.40023860646966;258.1312084298911
22.46974874371859;531.4943272606948;748.6819340438018;206.3999352047171;263.919616581248
22.90185929648241;514.4355229591595;762.3143888338464;206.40006321638703;270.9919406542621
23.333969849246227;486.5930393994061;785.5368602922566;206.39877870011418;276.2168778931858
23.766080402010047;461.17188268702574;807.4240474662104;206.4992335248341;282.5285965570019
24.198190954773867;427.5690688088182;836.3331877175656;206.37372401190882;288.9611296840958
24.630301507537684;405.1259926759419;855.5100468989058;206.3742432896393;292.8605788752897
25.062412060301504;378.9499908268239;878.1352893026419;206.29296737071832;297.1147409855296
25.494522613065325;354.55154578331894;899.6382743475372;206.29372504728542;302.14780249870057
25.92663316582914;327.6774069281163;923.1178740873638;206.40091678782545;301.77111950195035
26.35874371859296;294.94327760938523;951.9448678155915;206.13911128552607;308.26750002278123
26.790854271356782;271.85983802877985;971.8981302131996;206.02556775492084;311.7940734624354
27.2229648241206;243.40312035947198;996.7619147530979;205.6788499100637;312.18632946821344
27.65507537688442;212.00371660517544;1024.7991660239868;205.17027089827968;313.001396486092
28.08718592964824;178.57828794736113;1054.24479170349;204.65387299911907;312.95622284934325
28.519296482412056;157.13635641460894;1071.369792733627;204.31602772341284;309.39084178665536
28.951407035175876;127.9464615119714;1087.6399371137336;203.82692717265937;264.3679310724944
29.383517587939696;100.77722647161896;1094.7091037377807;203.545714660404;230.5355083096292
29.815628140703513;66.48383140795448;1092.8608837666627;203.23061625046932;222.89735194287468
30.247738693467333;49.86623116850298;1085.565629745335;203.2008557406943;190.28205901543612
30.679849246231154;35.64290523097321;1072.5200310975972;203.20594794476725;178.00638642235117
31.11195979899497;25.201052466069317;1053.9119511563495;203.3019079628712;173.2908534536561
31.54407035175879;19.920503918995852;1033.7522590828905;203.29733560164448;177.92541329382624
31.97618090452261;18.543045475098722;1011.734267232221;203.40101545101558;183.1259517057885
32.40829145728643;16.129936842275278;988.3054270840286;203.59196577288074;192.0425202830713
32.84040201005025;10.4059546320548;970.3718113625594;203.8094495973416;150.31632303055872
33.272512562814065;-3.1823882709495477;955.4069586551263;204.00704561031841;142.1284586869792
33.70462311557789;-13.44276719441785;948.7842556181029;204.07423756905416;133.36275923706282
34.136733668341705;-31.74361966692486;943.5715713734829;204.13362465088014;120.58165390710171
34.56884422110552;-42.27015605307271;945.4970687807497;203.96761466223433;117.55740536650342
35.000954773869346;-57.58398830959958;954.2132331960659;203.83666499240152;132.66269947624906
35.43306532663316;-65.13915327836085;962.9473060217159;203.65757720354372;136.57441979895026
35.86517587939698;-74.12866830245758;980.913915194159;203.32256183702378;151.16539651009813
36.2972864321608;-77.46418709930246;997.5277645541879;203.17111577270043;168.00767543543876
36.72939698492462;-76.31181133039863;1024.0251599540381;203.09900202237358;179.10992135169997
37.161507537688436;-72.19132317023913;1042.5493233370864;202.86981243808583;197.67537939316605
37.59361809045226;-63.928634542940685;1066.264674386004;202.57316492295607;217.71770873505304
38.02572864321608;-48.83097196132872;1098.0089397656363;202.23224229518593;222.98015483588117
38.45783919597989;-39.96715800381374;1114.1742071344922;202.13246383491966;235.36159721358337
38.88994974874372;-25.38719382949867;1138.0868258988587;202.10026717493793;242.47461862456944
39.322060301507534;-4.16443103348173;1166.3564335201067;202.0898841077107;251.94731277632403
39.75417085427135;15.12334168620826;1187.0265741649748;202.24282617574536;258.57677554952824
40.186281407035175;42.02987083299758;1211.8829358617563;202.43219449303953;266.90221200388316
40.61839195979899;62.89839915417167;1227.2521563951448;202.39929294811878;271.701222487641
41.05050251256281;91.64041345093577;1244.179437832986;202.4887573564459;273.6546154767142
41.48261306532663;121.08794188788866;1256.4769178070396;202.49973044436788;281.0935158383137
41.91472361809045;157.60695145338948;1267.602337238809;202.5216022963443;284.77908868230367
42.346834170854265;193.45105615646145;1275.0857299402012;202.73364682207085;287.58330764513653
42.77894472361808;223.2821306249829;1279.2455378593345;202.9026996931732;293.63128576597626
43.211055276381906;261.7767817620144;1283.4164190938668;203.2075423260908;296.79428738952674
43.64316582914572;293.8756506047808;1286.7032645656238;203.53803393060736;298.50003157419764
44.07527638190954;329.6480784986726;1290.3744349731119;203.8237081070473;300.5659010817073
44.50738693467336;365.5987485145283;1294.3517093052506;204.02914572173387;303.41598056312756
44.93949748743718;407.2387543927285;1299.140894207309;204.3023338352601;305.09326594253304
45.371608040201;443.87540743171746;1303.9605331039227;204.52989150016793;307.0289571350754
45.80371859296482;480.64642658658966;1308.6436803196764;204.72020325286385;308.0023669104093
46.23582914572864;511.991378156441;1311.219126340643;204.89245047501674;307.96071669867496
46.667939698492454;551.7473312085916;1307.8290158835011;205.01568907302527;305.9442963330447
47.10005025125628;582.8847472675017;1297.6338659342578;205.26948533594268;302.850863116354
47.532160804020094;613.2362166381278;1277.5715935298315;205.41230601230313;300.9939074170715
47.96427135678391;640.0197581630063;1248.1624203331453;205.65680777003257;295.8151732904505
48.396381909547735;653.3735534149356;1220.4774471088926;205.8013524626438;290.99383128964496
48.82849246231155;668.1852897068699;1176.3420724194125;206.10875143960897;291.99649652844244
49.26060301507537;673.9894516647729;1153.469203911343;206.25385243511485;293.14930600317547
49.69271356783919;682.2287037228897;1115.6128349284213;206.57675366558576;294.7886154602317
50.12482412060301;688.7548415112116;1077.9346464197909;206.90642093878935;296.43629935120146
50.556934673366825;692.0674256503427;1051.2071276040833;207.1238824853913;299.6655300622431
50.98904522613065;696.4578026768248;1002.8519950287059;207.3409285505096;301.88048452608297
51.421155778894466;697.6485933090521;975.8607077823593;207.49602375578095;303.05576357177904
51.85326633165828;698.4276800149294;939.7885167927585;207.409957579768;303.822509788067
52.28537688442211;700.2985328361718;896.053770394838;207.27731654387733;304.9306970598911
52.71748743718592;703.9998581851826;867.7952938988689;207.04238318999873;306.9457943082847
53.14959798994974;711.3905667341942;831.8472855033891;206.86623918613532;306.7755489247747
53.581708542713564;721.6805651468602;796.3596794767328;206.4921707648892;306.9166880583834
54.01381909547738;735.7399803378275;759.0374794065347;206.03121804648765;305.86500636093257
54.4459296482412;748.0995386282964;727.435141381567;205.80737081565536;306.0690566860498
54.87804020100502;754.7742628523151;682.8687714209981;205.79274068988067;299.2845442961083
55.31015075376884;750.1170954487059;658.1184560656552;205.86431073143586;294.2713434075306
55.742261306532654;739.8395880299174;614.6038081802902;206.16179629636332;292.2174464279228
56.17437185929648;733.5365364235706;585.1344437923052;206.31461308042324;290.74126563585025
56.606482412060295;731.8839588860787;554.5330130360793;206.22080880699033;274.13456260148837
57.03859296482411;738.2564617876338;524.8226808514784;206.07616895563766;266.34938776625836
57.470703517587935;752.8869205162703;496.2202772471575;205.66114103002755;259.6168293474673
57.90281407035175;768.6277356679861;469.2826441339959;205.29203397280406;233.5753006454731
58.33492462311557;779.697503692986;434.9299048933506;204.82491777352928;226.3674169286483
58.76703517587939;776.3759570208967;411.74655714700214;204.41110493605666;217.4392820000837
59.19914572864321;770.1990256368325;391.4122469892732;204.1048644301648;219.4979044977963
59.631256281407026;752.5288280839713;363.7638128010138;203.77875154990454;226.64753436228935
60.06336683417085;737.286092053362;349.5734186915418;203.54619823193698;246.2667795490336
60.49547738693467;711.577762740609;334.55367108873025;203.1171857597899;242.66503776609235
60.92758793969848;682.1042803635951;315.8991573568807;202.84756104197723;250.9866273902294
61.35969849246231;663.3314057266572;298.1539537132832;202.70305202617493;256.1742053711372
61.791809045226124;640.5944450435506;271.1810813768221;202.70291890838456;261.902313867623
62.22391959798994;620.1403380490372;239.20506506368213;202.609398033446;271.068081260759
62.656030150753764;607.4731539509143;215.34713877567972;202.50000100079066;278.0179655292503
63.08814070351758;594.5482119103218;189.24567545972872;202.41569835591508;285.2483951820017
63.5202512562814;579.4172775282162;158.17500975939993;202.30720003822879;288.86915914464936
63.95236180904522;564.2951333288175;126.47591421396899;202.11068703428913;295.826056061366
64.38447236180903;549.0585639312734;94.55310601315558;201.95920759809434;297.5703169438276
64.81658291457286;533.5931592527241;62.192659112532624;201.62033456947978;304.17207408626916
65.24869346733668;515.4373303503951;24.743402789000243;201.41944103029192;306.98530456800154
65.6808040201005;501.40590739989887;-4.134164096053592;201.21140780639666;309.63365994695755
66.11291457286431;483.7517582768718;-40.809021503143214;200.92784845964042;313.9906478021973
66.54502512562813;468.46151185218395;-72.6575524493831;200.75067868585577;316.1205470081904
66.97713567839195;451.8359151770955;-106.97018051657528;200.55061411512676;320.1307200397453
67.40924623115578;435.0248254393964;-141.2920197305;200.11543192671587;318.80947073626834
67.8413567839196;418.22174191368765;-175.28400745110605;199.70471840335057;320.75503942066666
68.27346733668341;398.93090809949854;-213.46411492633175;199.35408145468517;322.1003536566653
68.70557788944723;377.9648776506749;-253.93435239789292;199.49239164532764;323.2087099625536
69.13768844221104;365.2030601167951;-277.8313329618821;199.6764384628986;323.97309698433025
69.56979899497486;345.7150662995137;-312.8008060445043;200.34209925486442;322.8415838658122
70.00190954773869;317.6343729596804;-356.16747210982714;201.3177588445371;322.0000938129084
70.43402010050251;302.54753315266726;-373.6184584943483;201.74923238075218;305.45897009826615
70.86613065326632;273.931481334103;-396.9371870890249;202.285618978472;267.01928197023716
71.29824120603014;246.2300734578576;-409.39748166757386;202.77822316032749;247.2678632896193
71.73035175879396;222.14142734669284;-411.8022231762585;203.11379092230513;238.81231119185318
72.16246231155777;186.2173823764914;-403.8497163279431;203.30327087799392;242.12116292613723
72.5945728643216;167.7285208072479;-393.02123174626473;203.30013514003383;243.97187859238022
73.02668341708542;140.49552679356555;-367.18086697110056;202.9697246220384;251.3837168015724
73.45879396984924;128.12601159163415;-348.40383328607857;202.58672141855152;248.70619167480447
73.89090452261306;113.20057395836774;-320.9456903971406;201.76984141298027;257.16394143178167
74.32301507537687;97.84105793514533;-293.6194072930367;200.7377154073112;264.0531621167884
74.75512562814069;79.71501547854928;-266.9031408775761;199.4504955217949;269.3974146624968
75.18723618090452;55.08406990512205;-233.58645962419158;198.42506873239554;273.1162088356086
75.61934673366834;38.973365916860516;-211.95405257785555;198.50008420668152;276.0699143245495
76.05145728643215;16.422859996461757;-183.35432423330977;198.60305035274462;278.0387782831007
76.48356783919597;-3.283111318562235;-160.21710537782232;198.5511759791615;281.007682839519
76.91567839195979;-26.691876553169216;-133.92410273808778;198.28484179286474;267.05878746586166
77.3477889447236;-43.98709674280393;-114.64871471154936;197.83410517590286;221.72252715493403
77.77989949748743;-57.819165817488496;-101.95312986174253;197.63661487183117;157.2470753636648
78.21201005025125;-75.76971779106897;-92.6484971779669;197.5319998553764;128.50859766612666
78.64412060301507;-86.06124335369138;-91.18831641955859;197.577583001339;117.24853335508446
79.07623115577888;-103.25635264346285;-92.60881954757446;197.7814306463311;106.81889988510244
79.5083417085427;-112.95458144890118;-98.75475092823862;197.88552932722945;108.24926162409908
79.94045226130652;-123.14506315155552;-106.51302171856479;198.10079054101152;123.60817043724705
80.37256281407035;-137.02155934046488;-114.95854052220753;198.10241690108094;131.14937870081116
80.80467336683417;-156.42438570453476;-116.45942036766644;198.02805258305273;129.6578887794739
81.23678391959798;-166.94018391882625;-113.43035985797337;197.91823297688666;131.09711929474707
81.6688944723618;-181.6122864949507;-106.22755667262908;197.71380627254513;128.60591393894404
82.10100502512562;-194.45687373199274;-94.98136367382448;197.65746227096975;159.5072839693462
82.53311557788943;-211.07204646657314;-74.29570303300619;197.42941554039996;179.03282997022615
82.96522613065326;-219.78302012910217;-58.5036960223308;197.39527649810287;198.41970089379723
83.39733668341708;-228.75858629212905;-30.85792967004506;197.0807931230277;206.50031790447483
83.8294472361809;-231.15869801709005;-10.612167763721201;196.81311589075386;218.3390615663439
84.26155778894471;-230.07114756770378;16.721814994112396;196.5690237848866;228.76966041196818
84.69366834170853;-222.27333755388784;47.21111816357935;196.29373162662674;236.94326869629694
85.12577889447235;-211.309734579404;70.12871846868919;196.20185137232454;242.82978881800702
85.55788944723616;-193.07700116126955;97.3104209583056;196.2603535427409;243.77038760136037
85.99;-165.49087705116787;134.66651264447495;196.32252619508037;258.0
