Time [s];X [m];Y [m];Z [m];Speed [km/h]
0.0;-170.5;127.5;196.3;264.0
0.433859296482412;-151.07423250919604;152.41977258627446;196.62126949289632;271.62103205486324
0.867718592964824;-130.935190868013;178.22611752598442;196.64954197294404;273.93221839780495
1.301577889447236;-111.34112461518511;205.36209019445354;197.07908122819703;280.6017389397595
1.735437185929648;-91.32093815206964;232.96748456400152;197.49561332858602;283.41420719018345
2.16929648241206;-70.27073099211276;261.7745093312093;198.0026361789552;288.59254171519194
2.603155778894472;-46.57989902023463;296.1433075863004;198.59027107607497;292.7135512001031
3.037015075376884;-30.224652445122558;320.7688443962526;198.98791483936867;294.4874317148166
3.470874371859296;-11.369578659450012;348.48328722434167;199.5669021579469;296.0694282625809
3.904733668341708;12.621686760270524;380.83908994254523;200.1232489365717;300.47827306565995
4.33859296482412;35.314313226894775;406.40615959503043;200.99236866487425;298.7111591282846
4.772452261306532;58.83576516030589;427.8274915878334;201.1711965194147;300.2731112083354
5.206311557788944;88.63064313734812;443.6133768360451;201.2155763523941;298.9317798480888
5.640170854271356;137.14545031815473;452.677191654746;201.73161693955888;296.9255512445499
6.074030150753768;171.80574584177353;450.54759179528617;202.1955541707332;297.0012910478315
6.50788944723618;200.08735931606725;447.4422824464653;202.40041827538153;298.9428803449711
6.941748743718592;234.35270276213305;444.10518899931213;202.90283654412545;303.07208428146504
7.375608040201004;271.9579498132644;444.7585512669545;202.8923242140179;307.23931096153956
7.809467336683416;308.2287787561497;454.8021904324619;204.15018741697946;301.4898698246153
8.243326633165829;339.5737437917046;471.0619601907923;204.47436884380988;299.0743839814902
8.67718592964824;368.64145715257905;494.4266241867025;204.85328829118689;301.6516941909744
9.111045226130653;400.14405229290736;525.795591349;205.17428217448196;290.0701147881009
9.544904522613065;420.3311579147633;544.9568671168913;205.2556933924667;272.23680108055385
9.978763819095477;444.6222339633912;566.0214476538054;205.39829285987585;238.53981886107024
10.412623115577889;467.0684569818977;583.7237591282044;205.4911128575097;220.30977471161262
10.8464824120603;480.39697847451407;589.0092811899001;205.41637681992918;158.39019723134834
11.280341708542712;496.6984922646465;589.9306624950008;205.30333069797211;120.24123699385697
11.714201005025124;510.7121238188221;585.8850621366786;205.41186814382183;117.63806816141215
12.148060301507536;522.1487108045293;578.1577583583329;205.70147257284762;111.99408464084269
12.581919597989948;530.2293398878458;567.5520807846565;205.78442640521718;112.68451424706168
13.01577889447236;535.481901922987;554.2498408176825;205.8680155227252;119.98222122066477
13.449638190954772;538.3651372451678;537.4201177272545;205.97511740617736;130.2204348564541
13.883497487437184;539.480989379623;523.3705307897295;206.34703374175203;152.15131194106954
14.317356783919596;544.0021450932687;502.25722174039834;206.57437048286323;150.67362121943455
14.751216080402008;550.5023608988274;490.94007074000154;206.60580857734988;125.81358905412866
15.18507537688442;561.1518071793588;479.9017546259973;206.44241414280663;104.5918589954332
15.618934673366832;570.2778989544346;474.4573347593631;206.3984879350475;99.08355872499703
16.052793969849244;580.5812462528276;473.13928636707857;206.27528362396401;90.76335055294773
16.486653266331658;592.1686871514316;479.51058061549463;206.39776566735776;89.78224816569258
16.920512562814068;598.7195642923766;486.0702683566613;206.40442610652096;99.16816858445708
17.35437185929648;607.3124870950066;497.04669560692145;206.50544564342215;109.11196163126283
17.78823115577889;613.9515034864455;508.99577815322965;206.49963023606125;127.61483996393746
18.222090452261305;622.5943125946485;531.3244431985187;206.44647907525612;154.1922760695901
18.655949748743716;626.7411618300019;546.3893604097678;206.45569000981013;173.8487774312199
19.08980904522613;631.3004571785402;568.0510989268536;206.855895130572;202.52050971629353
19.52366834170854;633.2134453124536;591.3069910017397;206.37704210656497;208.9957658229871
19.957527638190953;630.7715079542797;619.0432158923206;206.10025368692425;222.46407998224345
20.391386934673363;621.8445663360714;650.2747311073774;206.06962308026348;229.42634169883897
20.825246231155777;612.7107340590549;668.5313223536238;206.13117217536936;238.5575107797322
21.259105527638187;594.7422756955707;694.1244215000373;206.43710285777257;250.5307991008118
21.6929648241206;565.8856033241725;722.1631975231949;206.3102566317894;252.74714953740923
22.12682412060301;550.7008938703959;733.8118926720634;206.38404128659477;261.8666986613391
22.560683417085425;517.3761306755679;759.8173685444722;206.29813041153665;270.03845661901204
22.994542713567835;493.1820586741711;780.0185142415838;206.38886932684304;277.2524142090155
23.42840201005025;471.9848634167466;798.0819560104129;206.40006014351277;282.1659775232471
23.86226130653266;446.6257679701909;819.8370730619632;206.33071356845912;287.651402591487
24.296120603015073;415.0507394928293;846.9364155593062;206.40239361496108;292.8467008089771
24.729979899497483;393.4611991601067;865.0854096981991;205.93089859152943;296.93521113852785
25.163839195979897;358.7410155127291;895.9513718244167;206.28842090882426;301.8523687294902
25.597698492462307;339.6050507558373;912.5068311506714;206.30899237658886;305.35716366157004
26.03155778894472;310.6771186921514;938.2398956618256;206.29274904004433;311.56818248830314
26.46541708542713;281.84602350247;963.3363364789913;206.07802759060132;310.03378779270224
26.899276381909544;250.7168049537981;990.4801334606476;205.8238403447104;314.2637932011413
27.333135678391955;226.3821978048129;1012.0046294656624;205.44726111372626;316.0253619538365
27.76699497487437;192.11453650030174;1042.5230278925546;204.74519597017544;318.1569819902012
28.200854271356782;168.53830442310138;1063.1131616289813;204.4904668244254;315.0013963345978
28.634713567839192;139.71744992188292;1082.2590873270756;203.96240683623523;296.8841394666506
29.068572864321606;107.20776690709646;1094.1730711111943;203.51698193496455;240.04901219549228
29.502432160804016;83.91252816064839;1094.9226020390126;203.36774344982996;208.57259047723903
29.93629145728643;60.440054275782636;1090.3713200268865;203.10848518890347;191.60164839688093
30.37015075376884;42.14832756954176;1079.840204331474;202.72772336206262;181.5554107607744
30.804010050251254;30.18719062772753;1063.9004184350867;203.2004652343231;165.71817797859177
31.237869346733664;21.901036724022106;1044.7714391840273;203.29999482233677;167.28286520456876
31.671728643216078;19.03635463263177;1023.6710562388682;203.3622948475482;179.85070193974522
32.10558793969849;18.156127418627726;1000.6511538164738;205.1612964811473;-21.98652394881779
32.5394472361809;13.480046539238945;977.902706157854;203.93496390233983;145.1988779341209
32.973306532663315;3.043241975011155;961.1567772465157;203.89968643707445;155.2622181988028
33.407165829145725;-14.134676672526789;948.4169861327774;203.99792168231346;139.6592753360866
33.841025125628136;-24.537820191265517;944.8488331076107;204.09840663760446;122.46574277019124
34.274884422110546;-43.435359970564036;946.1063963067812;203.98350389824773;123.76867192753588
34.70874371859296;-52.43173276649736;950.5260252056119;203.89768574426697;120.08290169967863
35.14260301507537;-65.06285449667057;962.8410299371487;203.5614473046639;128.67591187652815
35.57646231155778;-73.17001301798146;978.3760415301764;203.31946128885568;142.26310195041683
36.010321608040194;-76.78048491369042;992.5930633195034;203.20012465649714;157.5447585749981
36.44418090452261;-77.15653015450653;1017.4007168434206;203.09759618902365;174.4888423276097
36.87804020100502;-74.13683200071554;1034.9446249360572;202.93703080627188;190.76069070778215
37.31189949748743;-68.89061792565793;1052.9575818205149;202.75349834007937;202.48525403305254
37.74575879396984;-57.850589469661024;1079.985623799333;202.28496148439393;214.64638764068619
38.17961809045226;-47.81593001790692;1099.6502224164728;202.1587360111153;226.18146309788034
38.61347738693467;-33.0114458966162;1126.1937409110706;202.02764282945412;237.3972929463411
39.04733668341708;-17.913548253139684;1148.4654760675658;202.05994420996873;247.74616611880018
39.48119597989949;1.03185156588507;1172.1318730256535;201.97926478410503;256.8254342097213
39.915055276381906;22.777524498466253;1194.4791270451467;202.12661926403325;263.25718237484625
40.34891457286432;47.07137757018898;1215.6310503139455;202.78776847399845;266.8660041208938
40.78277386934673;76.52593138058191;1236.2598440437653;202.27531669233582;272.44441541141316
41.21663316582914;103.66495412619713;1249.5200739537281;202.51360705906205;276.3932836497845
41.650492462311554;134.58945534125974;1261.193729885373;202.42398740131864;283.28421399309667
42.084351758793964;180.35771561523282;1272.766996599202;202.62222425455832;286.172887757622
42.518211055276375;214.25798201301615;1278.124931903715;202.9363803561105;290.526963331972
42.95207035175879;248.2883612685263;1281.9598578217567;203.10076584589618;293.7134761510313
43.3859296482412;274.05234729221183;1284.7096455231033;203.25891109469777;296.7981376935255
43.81978894472361;310.0973388691591;1288.317143058846;203.71238937044126;300.3850831312007
44.25364824120602;345.5092958757045;1292.1254829374268;204.01347586515516;301.9994077041504
44.68750753768844;392.1170165814138;1297.3447265295488;204.09752462019014;303.0805313956166
45.12136683417085;423.0455472790029;1301.118459964392;204.40122363870765;306.00874084274074
45.55522613065326;458.57585266985404;1305.8840229935254;204.57627925523036;305.98469756042596
45.98908542713567;491.5426754768482;1309.6214061821834;204.80725586598982;308.24490132829726
46.42294472361809;528.7660320714973;1311.2709940839457;204.89724334269368;307.9858701543724
46.8568040201005;568.8500092040762;1303.209348731101;204.16691437639378;326.1484329515976
47.29066331658291;597.3785401944896;1289.2865768060717;205.35878257227387;298.70527406525144
47.72452261306532;625.7142696708909;1265.6620178306207;205.2989060786653;301.59630095757063
48.158381909547735;647.3191267357781;1233.1588375844472;205.69659263562016;296.0253955405521
48.592241206030145;662.4893390588473;1195.273418715486;205.9668074157707;295.0065823206258
49.026100502512556;670.1529664054934;1168.7011134929971;206.09377014993157;295.18264062764894
49.459959798994966;678.343918669808;1134.6491974882128;206.4272559893103;296.01165930883303
49.89381909547738;684.9996060221591;1100.7328556268292;206.86526029618537;300.1920493944385
50.32767839195979;691.7691716191416;1053.139719877041;206.9679965084506;301.6979171424877
50.7615376884422;694.667443902161;1024.5192715695457;207.18799032367824;302.80130358851545
51.19539698492461;697.0819087193826;989.8944119780898;207.39923798011662;305.94940187278803
51.62925628140703;698.1998471584382;954.0278547089671;207.5000943432892;306.00860098818697
52.06311557788944;699.1596974183888;915.7661574104413;207.0838864473657;310.11962243715385
52.49697487437185;701.800781848318;882.7977003511795;207.1983664876203;309.1534782141593
52.93083417085426;709.1502539228098;842.5962442911518;207.1282603613709;307.06262872544875
53.36469346733668;716.8425258702537;810.5123791059302;206.42240367037834;311.1830608155602
53.79855276381909;731.2892329866796;769.7207992531738;206.15756264632833;309.91253011775626
54.2324120603015;742.9225791747549;741.2584764176399;205.90003824478757;310.2568324804772
54.66627135678391;754.1948759822224;700.1389097151184;205.6776434325567;306.46370777616454
55.100130653266326;751.9119245919752;668.4950403321837;205.79357813343896;303.31313165976894
55.53398994974874;743.1500012595909;627.8272020818214;205.97097071058226;300.331289818867
55.96784924623115;736.1881552981504;599.6403541562881;206.1903546037331;300.11636404276413
56.401708542713564;731.4542722412077;562.7527762578718;206.2306961933238;285.8561609610347
56.835567839195974;734.9406503501509;533.3475751909028;205.98145030948172;264.8654623734887
57.269427135678384;751.7525617002223;497.0837174942156;205.41560737500558;256.2214410786139
57.703286432160795;765.0030142779377;475.9714834184898;205.4040090062232;258.1516746246349
58.13714572864321;776.023643609408;451.4619810159419;205.05987978367352;231.32579664943088
58.57100502512562;779.0099862468974;417.6852960002104;204.41513499937105;223.37608850869347
59.00486432160803;772.8605647429033;397.8708167831285;204.2253674075892;217.3141024131466
59.43872361809044;760.3139066728248;373.8311191531931;203.8653344218873;220.30355568836774
59.87258291457286;743.2750446491789;353.942545722723;203.62488984121586;227.25665993204365
60.30644221105527;715.1178338867196;336.34324940929923;203.21344134185537;237.62658755147345
60.74030150753768;690.9690630952819;323.11525449687457;202.89872185832553;258.3644028456984
61.17416080402009;667.4253510280082;302.0690805289098;202.80768094287066;244.0721321785392
61.60802010050251;650.9722360405477;284.1956353845285;202.80167077886375;253.59739350485228
62.04187939698492;633.3735075842703;260.85172563638554;202.6836821471902;259.4897647125163
62.47573869346733;614.0902041068531;228.15771687773403;202.50202843190266;266.9271014671368
62.90959798994974;600.313699207156;201.03325022459848;202.40316796338823;275.70043687299335
63.343457286432155;586.4211269981794;172.53484549446245;202.4091493186519;288.2304440056472
63.777316582914565;571.7890822986617;142.29979663854579;202.20426046675632;288.02630557682176
64.21117587939698;557.1291144434606;111.33664137163979;202.34146853019988;285.8691149367806
64.64503517587939;541.3162104291819;78.22802593183351;201.86376641571653;295.7539866041041
65.0788944723618;525.7410350619116;45.984346710234504;201.5998268660324;301.9769035286158
65.5127537688442;507.0940776114603;7.453233507753515;201.07782349683498;307.253208289828
65.94661306532663;490.45969599307875;-26.618452695264263;200.8882904229099;309.6834202789107
66.38047236180904;475.85334488599113;-57.16430992274371;200.80667408126703;311.86398515965675
66.81433165829145;461.15759916593424;-87.52830739583266;200.59320861327396;315.06461432096165
67.24819095477386;442.1980911955877;-126.80477984287897;200.30128388444805;317.6990498166564
67.68205025125627;427.5914790055383;-156.30047659786766;199.9254656444834;320.2751086314517
68.11590954773868;407.95582660537434;-195.49918392923803;199.3797835804711;322.00037078431984
68.54976884422109;391.57471483280005;-227.77391653154373;199.40505902484952;323.32697730403265
68.9836281407035;374.07507466616147;-261.2894428231705;199.51410959307583;325.00508048549693
69.41748743718593;350.38880319463857;-304.67996327261;200.0465420572239;327.76450552058475
69.85134673366834;335.66554130432087;-329.7032325879765;200.69630534208213;326.6871486905142
70.28520603015075;307.66135684569826;-368.32782101524543;201.59961527582232;316.07952585449334
70.71906532663316;287.1911969092197;-388.4324319693234;201.86372560550194;291.858907229799
71.15292462311557;262.0538127297277;-403.3442978201721;202.58527681445196;252.05349874985637
71.58678391959798;235.24822469271507;-411.22651621618365;202.91914083990298;232.15034226262193
72.02064321608039;209.5074791773738;-410.48699929632244;203.2884596551404;232.31088156984939
72.45450251256281;179.16863852827328;-399.6234090525203;203.30624561701887;237.00126031804726
72.88836180904522;157.1646617423844;-384.715687325502;203.09022240381958;241.99791384547837
73.32222110552763;138.86396297705053;-364.454103004631;202.88522358719624;246.3977802917129
73.75608040201004;122.76823478818264;-338.9283096222215;202.57948792412105;247.84508222770899
74.18993969849245;108.50062953204362;-311.95292915615596;201.4146640317213;257.9431810118446
74.62379899497486;87.0298307983591;-277.2704031361918;199.95053786710469;261.41448264166513
75.05765829145727;71.26468866286115;-255.6117680249335;199.03932927664292;267.9134899699426
75.49151758793968;51.929272667042575;-229.42293698276038;198.23561533218884;269.6843515612053
75.9253768844221;33.085744362558735;-204.2233153106524;198.53172691200768;271.80630947799256
76.35923618090452;7.295868157972225;-172.5019986853613;198.5944817284534;274.1527532156445
76.79309547738693;-8.330431947516747;-154.53563780323532;198.59409899984004;274.21339072595754
77.22695477386934;-29.431416318551793;-130.71600160783777;198.19052348112294;239.70085474983924
77.66081407035175;-45.60652285365402;-113.16806401724119;197.89923466629403;170.36427271965348
78.09467336683416;-59.981438489531655;-100.53192813697643;197.4776155137693;142.00861903157855
78.52853266331657;-73.23848550488063;-93.8629096963272;197.50060637080665;120.962976241019
78.96239195979898;-87.54818119113285;-90.9221011939969;197.58741193942774;113.35362097456873
79.3962512562814;-103.50640361534208;-93.19580119953537;197.8108777076469;108.29300684350662
79.83011055276381;-111.29727651659235;-97.51537883721561;197.82160413255238;112.45203774502637
80.26396984924622;-127.21827908550456;-109.51688369573388;198.10637706843397;129.4668478425051
80.69782914572863;-137.1065723677316;-115.0814181528792;198.10028487389576;128.53066710348773
81.13168844221104;-151.27604893909756;-117.17978664818658;198.00915536883835;125.4241995341706
81.56554773869345;-170.7387613777651;-112.05222902199387;197.82683392858902;132.372538918871
81.99940703517586;-182.1046218636461;-105.81967719748823;197.79525853011629;145.4307064526019
82.43326633165827;-199.35460951269707;-89.59752804434959;197.5038085056098;165.6290122260647
82.8671256281407;-212.87205728843978;-70.91302754362877;197.384259672209;181.14338690639283
83.30098492462311;-221.61952100842774;-54.48388669812797;197.3716654732932;195.0117477307616
83.73484422110552;-228.4298429022112;-31.61596860483883;197.02289360603632;207.23380598763023
84.16870351758793;-231.4273049582722;-5.524851575481751;196.65297224295458;222.8175875317662
84.60256281407034;-229.46137867267095;21.182490925479115;196.47500633754507;231.83965365838594
85.03642211055275;-222.03853159238074;48.59825528982047;196.26305160190176;240.14249758285212
85.47028140703516;-206.1181313271583;78.26676598908566;196.19617178438696;247.4598596101137
85.90414070351758;-188.9353970403503;102.62102026451781;196.14624910924232;255.34067713588513
86.338;-167.4;131.7;196.3;260.0
