Time [s];X [m];Y [m];Z [m];Speed [km/h]
0.0;-171.00884650747383;126.66563867609077;196.4218717855717;266.0
0.43125125628140704;-151.20204544834183;152.1974223602437;196.59294679573156;268.0557788331812
0.8625025125628141;-131.65071382270708;177.53637483908568;196.74898128172634;273.80206928459853
1.293753768844221;-107.00262687718376;211.5282774417684;197.2637702460258;281.82914289193803
1.7250050251256281;-90.93264829938201;233.51698462325078;197.54394249216762;279.9564756623553
2.1562562814070354;-65.07387160663504;269.3471360634937;198.16496642699954;289.73911506504413
2.587507537688442;-51.724042661569015;288.7023972027529;198.5434453682397;292.9914561279659
3.018758793969849;-28.546528514438208;323.239617633818;199.05830385695026;295.95673517879175
3.4500100502512563;-8.319069691359793;352.74873738356365;199.58895233237547;298.14872852481625
3.8812613065326635;10.268546951834471;377.62412536220955;200.0550909586637;301.08971460348704
4.312512562814071;36.71095291640533;408.63958535013876;200.90727291093214;302.04718326120917
4.743763819095477;60.17565132301335;428.67577377848664;201.1744598331793;302.00275769618077
5.175015075376884;95.66432508990101;445.283533359687;201.47098181791998;299.9470693328773
5.606266331658292;132.51770539265596;452.2964876057824;201.74112447933044;298.5724188123531
6.037517587939698;164.67236965618196;451.46645305819254;202.07669363211306;296.9943551465748
6.468768844221105;200.68033078000133;447.48086550675583;202.60313573907422;297.144812543107
6.900020100502513;234.1302721394573;444.0315767117113;202.85301648758255;300.8832568904308
7.33127135678392;269.5528376230988;445.07684411181856;203.29995375199195;301.0393187229913
7.762522613065327;306.8687299887988;454.2528319598473;203.91176013871154;297.7065150323994
8.193773869346733;338.3064000731306;470.12725464987915;204.4280596635554;294.96846831256914
8.625025125628142;370.03782586333074;495.36944107954446;204.8675675191438;299.2501525227227
9.056276381909548;392.800240562804;518.3951381261726;204.9954767593977;298.1047528391466
9.487527638190954;418.0341275477639;542.7876217693375;205.24590843335525;297.1993895244995
9.918778894472362;448.0569666287981;569.0608110357035;205.4142248642052;223.24328371947797
10.350030150753769;464.7561185064367;581.7121254615926;205.49653308389196;178.97725967665366
10.781281407035175;480.7476013466809;589.2328180633269;205.3974806582235;157.04975373967656
11.212532663316583;492.63813211249646;590.1242698699432;205.34111127837403;141.43149026534428
11.64378391959799;508.06943904908167;587.2277574185341;205.42097573658302;126.70564348043942
12.075035175879396;520.5318236984842;579.6704265661426;205.6007125842443;117.66811892748058
12.506286432160804;531.8370548672813;566.00703138476;205.87697132362965;114.9860336719735
12.93753768844221;535.3069954915883;554.1772209702149;205.92835217014024;119.81577137979369
13.368788944723619;538.1699992819322;540.0507753690567;206.05138233182683;130.54681914602125
13.800040201005025;539.4780855873186;525.3510862715707;206.2599401787396;139.4521213216472
14.231291457286432;541.8562241487016;509.74670837673114;206.49854216536545;140.83781708303383
14.66254271356784;548.6768623257897;492.90633136153645;206.61953792436518;150.30234269521898
15.093793969849246;556.2037966244761;484.2860126957484;206.56465770945397;108.4020216351491
15.525045226130654;566.0770651156763;476.5291174876805;206.4196280317339;102.71428254065783
15.95629648241206;577.4492508158512;473.1197364347471;206.44780671713735;96.4442368890127
16.387547738693467;589.2248106476954;477.1797039289788;206.39482779811615;90.17494455504459
16.818798994974873;596.0453518324591;482.8336184541106;206.40098141011387;94.77924470850245
17.250050251256283;603.9575412268198;492.28512996724277;206.49392839994897;106.86244803306629
17.68130150753769;611.100127945579;503.3636121503673;206.49850768148173;125.79132504420036
18.112552763819096;619.9930545061794;523.226429852509;206.4998876173961;147.69879739281046
18.543804020100502;624.5399439843568;537.8783979058246;206.50057962788867;165.0240318601197
18.97505527638191;629.1241355147785;556.3325090838488;206.50095462577863;176.00204850029166
19.406306532663315;632.5814762480401;578.5487693034015;206.41395248759446;196.757794184684
19.837557788944725;632.8053369358886;603.1921258076966;206.3918919693674;213.87805415362772
20.26880904522613;628.8101042822789;629.156518129614;206.30715632446154;223.03810420513625
20.700060301507538;618.6568796060579;657.0303864817636;206.21277408782785;232.59743480936476
21.131311557788944;605.489334684886;681.1679816518903;206.3717955272914;244.14865114097307
21.56256281407035;583.4176279982651;706.6564081865432;206.3997178583227;248.5722026950968
21.99381407035176;565.923677393111;722.0471507101015;206.4000563683447;254.09309174141487
22.425065326633167;533.353333345874;747.217541754123;206.40003584544058;266.2666195922523
22.856316582914573;514.1761433866834;762.5820321562971;206.40011904483535;271.6363615286881
23.28756783919598;481.9892741859879;789.5321021510773;206.38887150895897;278.5455724335987
23.718819095477386;463.78301977433944;805.2474000490395;206.494840844079;284.06725982236793
24.150070351758792;433.01364317252956;831.5269340739534;206.37665490422307;290.049929761379
24.581321608040202;409.6953971002009;851.499052135865;206.3878450053114;293.73741052077224
25.01257286432161;376.5068769681859;880.306612393113;206.2999442482256;296.8060562861403
25.443824120603015;356.120518356838;898.2991119092504;206.30237311411543;303.80583439147654
25.87507537688442;328.69227065966874;922.3350576799835;206.3277407519559;305.0122535805201
26.306326633165828;291.189764225265;955.2806690831256;206.13353185516783;308.45160218958745
26.737577889447238;273.12015438763274;970.8264700270988;205.9951091408719;311.20895871027176
27.168829145728644;245.45603265784325;994.8864710077179;205.68999588343502;314.07044928087544
27.60008040201005;210.30040637364704;1026.1801154581915;205.16300761303876;314.92382279710625
28.031331658291457;185.5421655608495;1048.347300917105;204.7439000618495;315.0119502153636
28.462582914572863;149.9697744276404;1076.5385815333452;204.19701065349867;312.3261824649851
28.893834170854273;128.51087982039346;1087.4584945135928;203.8013400898945;266.9323472631285
29.32508542713568;98.91549571962994;1095.099911710524;203.51772381143633;238.7557240797745
29.756336683417086;75.20639200807054;1094.426761345749;203.31063436693555;204.7699141544805
30.187587939698492;51.78854182972277;1086.3983698995676;203.19624950285237;185.88717496660342
30.6188391959799;34.892376579248825;1071.7137151126979;203.22292101734593;175.79187731612848
31.05009045226131;26.533358676175304;1056.8192434519822;203.3005459272916;169.614700015078
31.481341708542715;19.787295615361177;1034.432200037526;203.28950215946264;179.3682999125479
31.91259296482412;18.651186059837354;1014.2661745995673;203.40672941953113;190.69435093716632
32.34384422110553;16.92622240179617;991.1023302839085;203.60286604754012;187.9728550886432
32.775095477386934;10.801846853735023;972.327507023205;203.7359338111066;163.59741741193164
33.20634673366834;-1.726901702614104;956.6744362422462;203.9963351188565;148.51350803794645
33.63759798994975;-15.382163222373872;947.9714602862899;204.0026535256482;132.4757191139736
34.06884924623115;-29.698231341378456;944.0777618923488;204.11203443804558;117.66741971311093
34.500100502512566;-41.03268279373767;945.1111075256492;204.03719340098058;117.52096546824113
34.93135175879397;-54.66346848676542;952.3320965734998;203.77114248828875;119.81383405351289
35.36260301507538;-64.67449627710103;962.2999630628901;203.65078738340705;129.4843411790854
35.793854271356786;-72.39761992916819;976.6936462796177;203.400000679225;142.99629728899887
36.22510552763819;-77.72700100613929;998.1434960132984;203.20264815658214;167.68433632084188
36.6563567839196;-77.26694053959062;1015.7227365787937;203.09838583696828;173.4700640015363
37.087608040201005;-70.94839616188888;1046.7809491555925;202.82035840811403;197.10968790733784
37.51885929648241;-65.39757851930153;1062.512823525783;202.6353068111413;208.5932771174379
37.95011055276382;-54.156956656722066;1087.3434731338414;202.27993783013167;222.11608578252645
38.381361809045224;-39.27051640595415;1115.5083883369755;202.1247860102872;236.61590232479497
38.81261306532663;-28.641578837427996;1133.3025100195348;202.0965706587039;242.08637478454918
39.243864321608044;-4.199452514471406;1166.2592013035216;202.09651281780822;253.0849566899762
39.67511557788945;10.501085011007017;1182.3199842082188;202.16858324835275;260.5090033746943
40.106366834170856;32.69997766563727;1203.833116451354;202.3839495871854;265.11872958649667
40.53761809045226;66.0601281825669;1229.8994824537463;202.3990901641834;271.0649841224324
40.96886934673367;86.82423527826509;1241.6936176436002;202.4187102063807;278.1284732999433
41.400120603015075;117.47412645258143;1255.1428415191906;202.49971324172813;280.29773261307366
41.83137185929648;149.92310798593155;1265.6172058179;202.5004392179261;284.50299136227716
42.26262311557789;184.329749264585;1273.444562527418;202.62608551826634;289.6865743496342
42.693874371859295;221.68861728097255;1279.1591901749266;202.96491907165236;293.2840224120348
43.1251256281407;266.71144866363767;1283.9366132644209;203.2567838204783;297.7293758584736
43.55637688442211;289.53280402030833;1286.247262089849;203.48967652078034;301.04987701043905
43.98762814070352;334.113141048631;1290.8813274108804;203.9222153257305;303.43299548117494
44.41887939698493;369.0880557336747;1294.71431155146;204.03485667468243;307.0964964210077
44.85013065326633;400.2074777780748;1298.3109113566493;204.22607407632023;307.78411634294577
45.28138190954774;436.1012553474577;1302.8823824641947;204.5043257919449;308.9903114406291
45.712633165829146;472.8283285268441;1307.7423548255604;204.74683814090986;308.89278672099954
46.14388442211055;510.41101697328736;1311.1483382053748;204.89887179730852;314.4523022130171
46.57513567839196;556.4425151350545;1307.4726426743166;205.1300693619462;306.9998715818826
47.006386934673365;582.5086867573106;1296.5979409215101;205.18063430380445;304.2469497323617
47.43763819095477;611.6240650462671;1279.2957118633765;205.4814995293746;300.2302880837439
47.86888944723618;637.2094591215415;1250.6136111112808;205.58481382935304;297.9951243153664
48.300140703517584;651.9913735449119;1223.7811774535933;205.79542832988483;295.1915724540696
48.731391959799;663.994801289632;1190.5401560179826;206.03337426958902;293.00142154518556
49.162643216080404;674.2294052357312;1152.3476128491038;206.30102349241872;295.7164010784512
49.59389447236181;681.4679288762966;1120.5318434847372;206.49175681613315;298.0007629985252
50.02514572864322;688.18180587854;1080.766950264826;206.84302374511586;300.10715555398275
50.45639698492462;693.48490546581;1037.8072215881293;207.21938397828757;300.86090296615544
50.88764824120603;696.1211564715262;1006.8471105771939;207.39977403142706;303.0654817668987
51.318899497487436;697.6072969479682;977.2553892685634;207.44682208452443;303.8364545144951
51.75015075376884;698.4347120502449;940.6367889773327;207.47332635227042;304.5088859312545
52.18140201005025;699.8728354078337;904.3551846994985;207.36125917608928;305.99247381990324
52.612653266331655;703.9023534378085;868.27066148451;207.07451535589848;306.98493846171704
53.04390452261307;711.1250511121559;832.7768426907489;206.91037584691585;307.79736197552046
53.475155778894475;723.1933387882868;791.7394136949727;206.42044238197212;308.0905888073084
53.90640703517588;734.1233576503728;763.4960819279426;206.07521969393719;307.00674421810686
54.33765829145729;749.514003247218;722.4596795734475;205.8364525339362;305.84261346638215
54.768909547738694;754.0049471352341;693.5304461877455;205.79598505440126;300.1390407725233
55.2001608040201;750.1434492129949;657.9256778909288;205.89163287890992;296.93153082382537
55.63141206030151;741.871559699454;623.3815630163509;206.09788602516906;292.0774746923388
56.06266331658291;734.3600927136478;589.7649465615626;206.2359915295356;295.23452175761975
56.49391457286432;731.860086325479;551.6477397946209;206.1955065512617;281.74672634454436
56.925165829145726;739.1329351467259;522.9804888641903;206.0546075048223;264.30248184564243
57.35641708542713;752.9360186607565;495.94753451268275;205.59919370286119;262.9782236707733
57.787668341708546;768.7653621506511;468.7483800361814;205.24645581774004;252.27853913859798
58.21891959798995;778.1947373754605;437.0058820507153;204.82524380133995;239.5538561497623
58.65017085427136;777.6729609395129;416.60183004463056;204.46273226826509;229.465585742453
59.081422110552765;769.2710487152934;389.29664338129186;204.05377824711138;225.0028889586929
59.51267336683417;752.7484727926095;362.962494898563;203.72933458433516;227.89148236275102
59.94392462311558;734.7040087269078;347.690107761214;203.4647431045091;239.81846140491336
60.375175879396984;702.4668275918176;329.7597813714391;203.1288315601905;241.85724022186926
60.80642713567839;684.5904306004087;318.23497362824935;202.9001145576792;247.05387041190193
61.2376783919598;655.3336071252255;289.35741350288737;202.69220109823084;257.6789569731923
61.6689296482412;642.6568863246158;273.8825857337554;202.70179995212447;263.0146537359415
62.10018090452262;624.6802592715546;247.11392809446858;202.6339932396941;270.12594902109294
62.53143216080402;608.850721718939;218.07424592243834;202.4915177686386;281.2631477124789
62.96268341708543;593.7263306956216;187.53071897096657;202.45988691563338;288.1640764768486
63.393934673366836;576.0954317551179;151.1959755609485;202.2245868378621;290.09043121135244
63.82518592964824;563.2950405492456;124.49634581599963;202.10053941700886;294.9415534932609
64.25643718592964;546.5419419328365;89.31146061181892;201.95260693151198;297.76139810776317
64.68768844221105;532.2108946435254;59.43772878128022;201.68713528300415;305.0878981406861
65.11893969849247;516.0235824275678;25.877723722433725;201.37640089194755;308.095136689566
65.55019095477387;498.87678383420507;-9.4848690683734;201.14492814868646;310.9618650686358
65.98144221105528;484.03214551399094;-40.25837026841873;200.9660650948463;314.38588468589404
66.41269346733668;463.10792035604186;-83.76517978198751;200.73888333494565;316.70735314052047
66.8439447236181;452.5767574803501;-105.44456109719984;200.56864290092807;318.0191173049027
67.2751959798995;428.2755571472633;-154.99128192661163;199.90203002037154;318.6395656523833
67.7064472361809;416.2147892395071;-179.18820265707458;199.65946768032163;320.81306786238724
68.1376984924623;399.0754464326181;-213.05913366242658;199.3955736845836;323.02186419339034
68.56894974874372;382.50990957290105;-245.18800123191414;199.38195138286204;323.97878476617063
69.00020100502513;357.76391696956796;-291.4065786397026;199.9244833974;324.2948404233688
69.43145226130653;342.68782301563766;-318.04093130840175;200.42730623540385;324.57281766647714
69.86270351758795;324.29898059443576;-347.0660442672769;201.12916973475302;325.40101781423004
70.29395477386934;301.218128988232;-375.7025170109203;201.77427532253677;306.09792608989136
70.72520603015076;264.70990763101446;-402.58200938092676;202.56414589334594;279.69106516868874
71.15645728643216;246.34320850003172;-408.73623877269233;202.80384252178845;257.8917105501215
71.58770854271357;213.94471311486143;-410.936351081203;203.16209473910422;245.24240483761045
72.01895979899497;189.15312796655314;-404.7876747812478;203.30084745218008;240.0547444002607
72.45021105527638;163.9867310918961;-390.2353516777724;203.21240129131948;243.21433229091767
72.88146231155778;143.82048791301574;-370.9422541549019;202.96160994302;248.0017813903918
73.3127135678392;123.26692619377766;-340.54056802944615;202.4565852288718;251.36453505143956
73.74396482412061;111.50867136823847;-317.66310231664886;201.7241611556924;258.1668010117194
74.17521608040201;89.90234782194449;-281.1752782921856;200.089716971267;263.58766159252326
74.60646733668342;74.47074038684713;-259.7375276500924;199.14154215610745;267.24800454742
75.03771859296482;58.18818349243178;-237.84900667889258;198.5020136596653;275.3203704832085
75.46896984924624;36.70770547587757;-208.99562129991088;198.52091991745948;277.45956807113305
75.90022110552763;16.991544148959097;-183.73488071127832;198.7367572014465;278.9748116981991
76.33147236180905;-12.461262176329631;-149.78083092351795;198.47994739882765;281.70482055550445
76.76272361809045;-26.768564448424403;-133.7556890429776;198.22325881120474;257.55680808322677
77.19397487437186;-44.794347814924734;-113.87230483737035;197.8613839573982;182.66924872804447
77.62522613065326;-61.38909607029868;-99.55810020413665;197.56705640058817;153.3831284312945
78.05647738693467;-73.02139036960429;-93.80245920976819;197.48886949573898;137.88910923927125
78.48772864321609;-90.91978899766657;-90.86109625434872;197.6710601550931;109.36760474185462
78.91897989949749;-103.67248667735296;-93.74866210727608;197.8375924772604;107.87997958522101
79.3502311557789;-112.52901063397282;-98.1379638970163;197.92724334417815;117.86635337306545
79.7814824120603;-127.81893384151944;-109.9454735743584;198.11125819505332;121.76950553537566
80.21273366834171;-136.7642379138293;-114.88682818084543;198.100063360003;132.98940591992465
80.64398492462311;-151.71221379350519;-117.23231495233051;198.071210169899;133.24334004911947
81.07523618090453;-167.67180580657572;-113.18195074909333;197.92696510787448;135.82601169596552
81.50648743718592;-182.7841549926028;-105.53691081765763;197.75956841787013;146.95848886902462
81.93773869346734;-198.79481342976555;-89.76357049328281;197.60519858945034;167.84109812854885
82.36898994974874;-211.6299494753568;-72.39477442429475;197.45586665607914;187.6257225888933
82.80024120603015;-222.9099199190943;-52.12180696732829;197.34721672306236;191.59356220460336
83.23149246231156;-230.39921453168802;-20.987566523525302;196.9706893567317;214.12883276499934
83.66274371859296;-230.90599269074278;1.03668561419041;196.70117048440622;217.73600574441934
84.09399497487438;-227.4554394483102;32.37563988043534;196.4419710291058;230.1928730099038
84.52524623115578;-216.27651011144224;60.1721458281259;196.23061789288974;238.07244701380668
84.95649748743719;-207.26533033411536;76.49217349703758;196.1940016820282;247.39721131178226
85.38774874371859;-189.29915414473004;102.31241458112413;196.28919578105882;255.19957915103294
85.819;-165.6940552172742;134.05909586967974;196.38585546667412;258.0
