Time [s];X [m];Y [m];Z [m];Speed [km/h]
0.0;-174.4577634732753;122.60266570745644;196.35589139677543;261.0
0.4347185929648241;-154.87644457355725;147.63258827072005;196.5453336075862;268.31661024413944
0.8694371859296482;-134.5004341325368;173.72758366815174;196.78763755980293;272.9390281122407
1.3041557788944724;-114.81180746172039;200.68161420267268;197.13199856461483;280.23510418223225
1.7388743718592965;-88.21042982210017;237.29756165001015;197.70579583728204;284.0244767476595
2.173592964824121;-74.02589797282855;256.8904066444731;197.94215623226688;286.3681353594605
2.608311557788945;-54.41998403338094;284.6301299164153;198.39374142453795;289.941267728843
3.043030150753769;-29.526293558008618;321.73771967188225;199.0831261241589;293.68110178225885
3.477748743718593;-13.939134420914307;344.86377957166894;199.48431131568083;292.3157643686289
3.912467336683417;5.9340426160333015;372.1831479529276;199.95133549320622;298.05522438260107
4.347185929648242;34.99214998947691;406.6794781036719;200.86377512849157;298.98624491933197
4.781904522613066;51.87189855065772;422.2520585423086;201.0601664549087;299.141685516217
5.21662311557789;86.9631700367691;442.52796485984015;201.36500891352978;291.2857770515588
5.651341708542714;118.05388196696452;450.44787064991795;201.58834184101767;295.90093230088945
6.086060301507538;159.58872334457368;451.6441833314461;202.068750812327;295.70670011592375
6.520778894472362;188.9698688219103;449.0267769459687;202.4459760800487;294.5733174731535
6.955497487437186;225.08426299549535;444.62465610063566;202.7770633300089;295.80859236692993
7.39021608040201;261.074559165312;444.37227243163363;203.22213598076956;300.0335563494551
7.824934673366834;298.88074543490825;451.52472438051643;203.71035907773157;296.8920009839816
8.259653266331659;340.51464953151;471.63512548665153;204.4333606211383;298.0935455392706
8.694371859296483;360.5741512844864;487.0874218807645;204.7687977303688;299.93009749984196
9.129090452261307;386.6422572299378;512.2038215424744;204.97109677695786;300.38870221424366
9.563809045226131;420.69107630179326;545.4455592482594;205.17606047393852;302.66436734858837
9.998527638190955;438.842569225623;561.2129927300901;205.3785813470883;248.1711903343349
10.43324623115578;459.07302994641987;577.7692260688272;205.50352942876162;189.56426656470975
10.867964824120603;476.1236153134663;587.7271681687861;205.4261463058576;162.03485991684568
11.302683417085428;495.6774030950411;589.9995259539417;205.30985455014175;151.6681408888524
11.737402010050252;509.58420803796855;586.5726232487322;205.42647835887243;133.24868585700125
12.172120603015076;522.9141075374949;577.6051613914958;205.64217694728043;128.83589398935183
12.6068391959799;532.8915906283028;562.5722295734448;205.91205632695258;121.0116681676159
13.041557788944724;536.4799159351832;549.1319340203501;205.94818436978562;122.88255011193128
13.476276381909548;538.6220150875071;535.439278508437;206.0772611599003;128.96769590968066
13.910994974874372;540.0364462563764;520.0937107941543;206.31309056982568;142.18310427929842
14.345713567839196;543.5952665318523;504.21481685947697;206.61216046878516;137.88685481644663
14.78043216080402;550.9784632864416;489.9604236251399;206.6073363927376;114.20353993092256
15.215150753768844;559.2808730194614;481.558958380616;206.5114053148642;103.80758378039728
15.649869346733668;568.2110323202755;475.4422778786726;206.50466149269633;92.07994496901456
16.084587939698494;578.0090189860498;473.0015233621375;206.4973191042824;85.72027819804262
16.519306532663318;589.3399590927888;477.38315287412723;206.30019371049923;84.09944192535158
16.954025125628142;595.919086640232;482.82220437695725;206.40008103030297;92.71961513603344
17.388743718592966;605.3060913930058;494.0724970855696;206.5097111351878;102.83000755662859
17.82346231155779;610.9575819034394;503.1268903067564;206.49969310359688;118.84450841098455
18.258180904522614;617.684268058063;517.3746171803069;206.49773977839476;154.40876763033455
18.69289949748744;623.707205152053;535.0434927677356;206.41504424506599;151.2821517640953
19.127618090452263;629.8234777711107;560.039931144505;206.52682387528495;182.59623737380645
19.562336683417087;633.2778242868985;591.8198578482594;206.41634533931324;199.53826745847118
19.99705527638191;630.8269842600589;619.1211892133429;206.30149072431078;206.67298892512724
20.431773869346735;627.0175963199277;635.9750475392457;206.29321185138278;232.5556926870859
20.86649246231156;616.7351844416265;661.7054419750027;206.27242425808282;233.90948790893856
21.301211055276383;597.2109890648762;692.0124303227408;206.4264297438299;240.1122319554184
21.735929648241207;580.6563534514555;709.0232172026776;206.39915529870308;250.27374561381086
22.17064824120603;557.035948091478;729.1616344770287;206.39996835699404;255.4463198963672
22.605366834170855;528.0561449918073;751.4696693149251;206.4000277628581;264.7198384074918
23.04008542713568;506.0066247773632;769.2441987934051;206.39980444057312;269.8143459542047
23.474804020100503;481.07358569794883;790.3645786737061;206.40426727955872;285.0497762983382
23.909522613065327;455.14700758638025;812.6265797243767;206.49440816113133;283.12839380613656
24.34424120603015;420.4507552621666;842.2993191071546;206.39955559926176;289.7425331899569
24.778959798994975;402.43541084890643;857.7907275646461;206.30224969328336;295.089951523507
25.2136783919598;372.78874780108765;883.5892767218403;206.29592250845783;298.71806635106844
25.648396984924624;344.76826864034183;908.2412171067713;206.3794786044769;318.3144636326893
26.083115577889448;311.6321191334186;937.2835838765471;206.2844820556732;305.03675148751745
26.51783417085427;292.3909956957176;954.1150165953353;206.17786316408328;308.9115484389733
26.952552763819096;263.30565535820296;979.2941624380135;205.97590782718078;312.91149227178363
27.38727135678392;234.928086517615;1004.276329602573;205.4831417705769;312.1562835446038
27.821989949748744;206.26023443664724;1029.9037668388585;205.0573775058179;314.99448631719616
28.256708542713568;177.88762869604648;1054.994453971243;204.59808510413302;313.03658838086426
28.691427135678392;150.48893271181709;1076.3034994064935;204.14059214920758;239.89016313353943
29.126145728643216;125.40522920853297;1090.008471516545;203.74301638109134;227.57974089675324
29.56086432160804;92.60198657585208;1094.9237645291255;203.4529239252345;212.92470401922526
29.995582914572864;70.9771357215255;1093.694308990023;203.29978907828567;192.97749544530703
30.43030150753769;50.45908548929268;1085.8585646717715;203.1980353019386;182.09163194006572
30.865020100502512;34.51824237260034;1071.1377315941306;203.2243959453849;165.0425793408473
31.299738693467337;25.180450199449858;1053.6589779475466;203.30035839454519;169.59343807059466
31.73445728643216;19.946261288925037;1033.3981496389752;203.30096357993364;179.09689326200842
32.16917587939699;18.575047773033383;1010.843223850562;203.37824728147723;180.94639033049913
32.60389447236181;16.62354711542266;985.6949003343834;203.579780594157;159.5933945487516
33.038613065326636;6.104336903116779;964.7928595512179;203.9115850491795;160.88172766930919
33.47333165829146;-3.8326931296538604;955.4886588870704;203.94796070699374;143.4757388845323
33.908050251256284;-15.684831182000615;947.4345479100946;203.98458277184375;131.2562539996144
34.342768844221105;-35.777643708186744;943.5464955488737;204.11572162824788;116.61973713105867
34.77748743718593;-44.507658208992346;946.3228503130538;203.94734490610008;113.7619232175068
35.21220603015075;-56.125310077959526;953.2376450757944;203.80100542676595;122.65768767282187
35.64692462311558;-66.13348836199265;964.5071919297307;203.6133368844914;123.63080862235249
36.0816432160804;-73.96956151869594;981.389681472293;203.32270947372635;147.25432912299758
36.51636180904523;-77.76074007239765;1004.9846145724815;203.12524513358358;158.09174307537498
36.95108040201005;-76.83389376257001;1020.124677424551;203.1222329826017;177.42654915647367
37.38579899497488;-72.52783520585054;1041.7243827636917;202.9253849516652;193.28090914433298
37.8205175879397;-64.576941433271;1064.6617022927323;202.6062241241501;206.26874607232304
38.255236180904525;-54.01942883939267;1087.6215322351272;202.32490566899773;204.1702371767733
38.689954773869346;-37.82127038256721;1118.1241617958847;202.11993439139448;229.65746212172567
39.12467336683417;-26.01153674982496;1137.1307667397898;202.10079541937117;242.4221809178847
39.559391959798994;-4.086858066583565;1166.2648089244542;202.1003327738837;249.66499313611618
39.99411055276382;16.815364920971845;1188.5214277127493;202.30569605024564;258.87336230069
40.42882914572864;35.761002490892686;1206.461320676005;202.40242354434312;264.7033348146931
40.86354773869347;61.53033125541762;1226.4087468091343;202.3988045080258;271.14305791156943
41.29826633165829;89.77756961617835;1243.210354219957;202.48441817372137;274.7256863415926
41.73298492462312;120.71847424466728;1256.390000199242;202.5002099061719;279.4548291490738
42.16770351758794;152.6367432940806;1266.308583568329;202.51739694310612;284.5551667422773
42.602422110552766;187.33380216922788;1274.0382109384445;202.70602915160578;287.99032846726436
43.037140703517586;227.44714461747742;1279.6896475292117;202.96941369436473;292.13875847803814
43.471859296482414;263.0745253285666;1283.587043098664;203.25368840003736;296.5481760712356
43.906577889447234;300.51571515180945;1287.3571564187273;203.59315274885637;297.67094402266963
44.34129648241206;341.86225161676066;1291.768204385789;203.92008513260174;302.4252499001607
44.77601507537688;367.3660831809658;1294.5021002089522;203.9614424342421;303.92803317528706
45.21073366834171;419.1371826901231;1300.5676762048174;204.44771904804458;305.00113500520024
45.64545226130653;448.46591805993904;1304.5659849166477;204.59800834864512;305.6221380928187
46.08017085427136;478.47220025595107;1308.3016128132529;204.71131039823717;306.9575064337048
46.51488944723618;516.6706461016695;1311.4989299529032;204.86934195481743;306.6578867741266
46.94960804020101;547.7943855263935;1309.0199508072662;205.06266378626188;300.61474569439804
47.38432663316583;582.3526723612732;1297.8985562889025;205.26569044846306;294.26042593662936
47.819045226130655;619.9622662235199;1272.278570384966;205.53951246984533;293.0964354904075
48.253763819095475;636.1551196642104;1252.9212707011343;205.59665084860282;291.2734665118681
48.6884824120603;652.9074589161446;1221.3527421874423;205.75761723001727;289.867196823464
49.12320100502512;664.8136269999906;1187.9373356219862;206.0670442229365;290.3389354225578
49.55791959798995;673.892242235074;1153.8466888858097;206.2721963100584;292.7224896052964
49.99263819095477;681.5878884738192;1119.3009758939875;206.5120269550823;294.9562628501816
50.4273567839196;687.4642223387319;1085.5293241859356;206.82680206293867;296.6993322075575
50.86207537688442;692.2601294552129;1049.1737312296018;207.08960985446214;300.0960094592124
51.29679396984925;695.744360782197;1012.1085042770371;207.39202424085832;301.797057955233
51.73151256281407;697.6309982881876;976.1384323106155;207.4541410772151;303.2790099711341
52.166231155778895;698.6841926648307;934.6285957292487;207.45619600180643;298.17724032568077
52.600949748743716;700.0774135469976;900.114954238458;207.36342177132417;307.37215041502634
53.03566834170854;704.5210574337135;864.5327576926942;207.0348811741944;305.8908762324419
53.470386934673364;711.5999549337137;830.4607944472543;206.89478637951453;306.631309096154
53.90510552763819;723.6600913203946;790.4812015124826;206.4146315468839;306.89367686826085
54.33982412060301;735.2711750610817;760.6507255484348;206.0295084714458;307.74601972624066
54.77454271356784;749.4563890638285;722.3593587953782;205.8292381603285;306.91784224545245
55.20926130653266;754.02062237391;690.3336722864185;205.79724468712732;301.97581695840086
55.64397989949749;749.4118653727364;654.0047726336392;205.89493819916476;298.10487621341093
56.078698492462316;739.1811189328155;611.3908972189276;206.15580173726732;299.38387351751976
56.513417085427136;732.2263068058309;573.0478745790585;206.30801411782616;293.83470456605124
56.948135678391964;731.2844464270704;549.5881606446229;206.2896140750188;284.89255477903265
57.382854271356784;745.2557957368014;509.13837731909496;205.86595072296257;264.22397021440275
57.81757286432161;760.4367744978782;484.30988323013287;205.44310639659923;255.664285222037
58.25229145728643;771.0873750402864;463.8568326122659;205.18373786718624;247.4101610900581
58.68701005025126;779.758879622664;431.19673484263075;204.7426368442612;234.5905629257292
59.12172864321608;776.5527911213815;410.1567567253984;204.367751351856;227.21973698176123
59.55644723618091;767.3148696942535;385.28950588192635;204.02906204454754;219.19059553230778
59.99116582914573;752.5807953824254;363.2492001135552;203.7688293944167;218.9302596920411
60.425884422110556;731.5709626244532;345.60228768676564;203.40601151762024;228.7176872695453
60.86060301507538;697.299680732231;327.01122147437235;203.07387001492046;241.67114370461766
61.295321608040204;681.6805992603148;316.01773763581764;202.80369912873465;244.85973152779465
61.730040201005025;658.3449366753882;292.6624769691235;202.8008317746583;252.00090553410217
62.16475879396985;638.2534190772981;267.51910003065376;202.6361552064991;257.0298091789473
62.59947738693467;622.6023523213925;243.66779781026557;202.5950309379636;264.7213916797475
63.0341959798995;608.0820793065852;216.5345550141933;202.50666047716544;273.5705894425702
63.46891457286432;592.7590589719816;185.54246106558134;202.39333452926317;280.1576856627106
63.90363316582915;577.7456947275183;154.67659769726987;202.29528220874462;286.048826559834
64.33835175879398;561.3037540801133;120.28698144592707;202.02728917872156;291.68163935241324
64.77307035175879;547.4427261022412;91.20404146923877;201.9621807341942;296.9921488988954
65.20778894472362;526.1807208789777;46.81748773850182;201.5902780911458;301.20475513995984
65.64250753768845;515.4596235409696;24.774472384471956;201.38264477257994;306.9685946390426
66.07722613065327;499.2115927384487;-8.610643880648738;201.13084637555417;309.6940158358448
66.51194472361809;483.37843108170165;-41.67253675227701;200.96919889574403;312.95673146019186
66.94666331658291;463.3621354539098;-83.18627248513444;200.67911005724457;314.04108607905613
67.38138190954774;447.818700989957;-115.30905691728435;200.45093262917285;316.61131356408555
67.81610050251257;428.3811888479599;-154.65310965796942;200.00643240355356;317.83107780805597
68.25081909547738;416.45921995647217;-178.76850798759745;199.62125292842842;320.5267334314847
68.68553768844221;398.5541190284496;-214.07375619784528;199.3995978127467;321.0467636839919
69.12025628140704;379.3321695216639;-251.08669335022273;199.45392978035719;322.0001457723831
69.55497487437187;359.863866674758;-287.7678366506999;199.82702443072253;321.9868709983988
69.98969346733668;342.87180800222404;-317.61578173428387;200.42659337950468;323.48392997876726
70.4244120603015;321.7799333036229;-350.4626088227034;201.22890024915108;316.4599803871623
70.85913065326633;298.7787129894647;-377.90711390559926;201.74905650723505;288.04740236538186
71.29384924623116;265.8544264245118;-401.2579128096112;202.51817383655938;261.96143052818934
71.72856783919597;242.457628695375;-410.0610127586295;202.85199347460318;246.04871005663432
72.1632864321608;220.8461179492071;-411.6878709304124;203.09041305729886;232.99862063584214
72.59800502512563;188.92498542680678;-404.95535405383896;203.33244914388428;233.7111525855869
73.03272361809046;168.384651848941;-393.67506510345953;203.21207357903506;237.30205350941503
73.46744221105527;144.38436821486965;-371.67537657122097;203.02630241502123;244.24235668494475
73.9021608040201;128.51234137958528;-349.3123978764986;202.65317930373917;246.98774530210048
74.33687939698493;110.782676891603;-316.244027106494;201.70701810797942;257.1258573379246
74.77159798994975;94.75630627232596;-289.22319302493884;200.48437662447097;265.0780072327517
75.20631658291457;81.13890884871505;-268.95570737295293;199.54623361086416;268.6511323031724
75.6410351758794;58.10103701685195;-237.68639107087967;198.52682273813218;273.9310205720136
76.07575376884422;42.07090445414802;-216.00654441415008;198.4494060219808;270.61374338140894
76.51047236180905;16.650066125197885;-183.3767620589868;198.61463369655633;279.18049784620064
76.94519095477386;-1.366009264087503;-162.48885639974088;198.59644005604042;282.05769776419885
77.37990954773869;-24.015783007391185;-136.83502457805923;198.29819299345942;287.6560169792081
77.81462814070352;-47.14657543548574;-111.45800228792234;197.80116942500163;187.89214006970613
78.24934673366835;-58.54404118350776;-102.02585872998242;197.6529278695689;151.77494458203506
78.68406532663316;-70.6712658016512;-94.77061816006609;197.50003716324431;131.67988095862472
79.11878391959799;-84.26935059946831;-91.41127014739887;197.60424346126342;116.54736922610752
79.55350251256282;-97.4298399898592;-91.71343799058636;197.66824154366336;109.02329775691976
79.98822110552764;-111.71156379097809;-97.54123313499232;197.86083524940074;110.84158275637289
80.42293969849246;-123.68783563165071;-106.96189528672821;198.08848572562653;123.13719662524207
80.85765829145728;-133.7982965124774;-113.49497508866583;198.09815506621732;131.01860900963436
81.29237688442211;-148.61810220821667;-117.43084808191605;198.08725582990255;128.97280153247138
81.72709547738694;-167.32684170132933;-113.37783385534283;197.88412367252542;131.23086169319657
82.16181407035175;-178.96349840937245;-107.77524278522392;197.80842611382084;141.4112773262803
82.59653266331658;-193.5235912214634;-96.0200720627405;197.5909941742228;160.2595817711021
83.03125125628141;-208.1225216418865;-78.12303214675246;197.46740165933028;175.9039622204707
83.46596984924624;-219.08321247609558;-59.83488828674494;197.40272631707944;234.79757966615819
83.90068844221106;-228.22552793691688;-34.26032286649327;197.23321683973268;157.09800954067663
84.33540703517588;-231.22558308951687;-10.494885451883485;196.86167438880568;205.39319165720633
84.7701256281407;-229.86665862120378;18.444265293619022;196.5282012810309;227.01928870263222
85.20484422110553;-223.4182796558169;45.569755642000004;196.31691769335512;231.9123862657054
85.63956281407036;-210.90877507624373;70.66369311337465;196.19644567057478;244.5759591502786
86.07428140703517;-194.14691225608513;95.73970907319669;196.2682981577944;250.10020717040686
86.509;-171.11754358207017;127.02853578037312;196.3154164519678;259.0
